Time,TC1_tip,TC2,TC3,TC4,TC5,TC6,TC7,TC8,TC9,TC10,h,flux,abs,surf
0,374.32,378.57,364.38,202.97,128.16,78.98,59.5,47.34,36.48,34.12,0.0375,25900,25,52
1,374.32,378.6,364.37,202.88,128.14,78.96,59.5,47.31,36.47,34.12,0.0375,25900,25,52
2,374.28,378.63,364.34,202.87,128.11,78.93,59.5,47.34,36.46,34.12,0.0375,25900,25,52
3,374.28,378.68,364.33,202.92,128.07,78.92,59.47,47.36,36.45,34.14,0.0375,25900,25,52
4,374.25,378.72,364.3,203.01,128.07,78.94,59.47,47.45,36.5,34.09,0.0375,25900,25,52
5,374.24,378.76,364.34,203.18,128.07,78.99,59.54,47.51,36.56,34.09,0.0375,25900,25,52
6,374.22,378.78,364.35,203.37,128.09,78.98,59.62,47.61,36.63,34.1,0.0375,25900,25,52
7,374.2,378.8,364.39,203.46,128.09,79.0,59.63,47.61,36.66,34.11,0.0375,25900,25,52
8,374.18,378.82,364.48,203.51,128.1,79.0,59.62,47.54,36.69,34.12,0.0375,25900,25,52
9,374.15,378.82,364.58,203.46,128.09,79.0,59.65,47.5,36.69,34.14,0.0375,25900,25,52
10,374.14,378.85,364.64,203.28,128.06,78.98,59.61,47.43,36.67,34.15,0.0375,25900,25,52
11,374.11,378.87,364.7,203.09,128.03,78.96,59.52,47.36,36.63,34.16,0.0375,25900,25,52
12,374.08,378.87,364.71,202.9,127.96,78.94,59.38,47.28,36.59,34.22,0.0375,25900,25,52
13,374.05,378.84,364.66,202.69,127.9,78.89,59.42,47.23,36.56,34.05,0.0375,25900,25,52
14,374.07,378.85,364.62,202.54,127.82,78.87,59.28,47.19,36.55,34.09,0.0375,25900,25,52
15,374.16,378.88,364.47,202.41,127.78,78.84,59.33,47.19,36.51,34.12,0.0375,25900,25,52
16,374.36,379.03,364.34,202.22,127.75,78.81,59.27,47.16,36.51,34.12,0.0375,25900,25,52
17,374.8,379.23,364.15,202.07,127.68,78.78,59.28,47.18,36.5,34.09,0.0375,25900,25,52
18,375.42,379.19,363.82,201.98,127.64,78.77,59.34,47.2,36.49,34.11,0.0375,25900,25,52
19,376.04,379.08,363.49,201.93,127.6,78.75,59.29,47.21,36.51,34.09,0.0375,25900,25,52
20,376.56,378.99,363.14,201.84,127.59,78.74,59.25,47.15,36.5,34.07,0.0375,25900,25,52
21,377.26,378.94,362.39,201.85,127.55,78.74,59.15,47.13,36.47,34.05,0.0375,25900,25,52
22,377.71,378.87,361.77,201.84,127.54,78.72,59.12,47.1,36.44,34.0,0.0375,25900,25,52
23,377.9,378.84,361.4,201.74,127.52,78.67,59.18,47.07,36.4,34.04,0.0375,25900,25,52
24,378.17,378.69,361.17,201.5,127.47,78.7,59.11,46.98,36.39,34.0,0.0375,25900,25,52
25,378.26,378.63,360.92,201.26,127.42,78.66,59.07,46.97,36.35,33.92,0.0375,25900,25,52
26,378.39,378.54,360.74,201.02,127.35,78.62,59.05,46.95,36.33,33.99,0.0375,25900,25,52
27,378.43,378.47,360.75,200.79,127.3,78.6,59.03,46.94,36.32,33.98,0.0375,25900,25,52
28,378.42,378.39,360.76,200.64,127.22,78.57,59.02,46.94,36.3,33.96,0.0375,25900,25,52
29,378.38,378.31,360.43,200.49,127.17,78.55,59.01,46.94,36.31,33.97,0.0375,25900,25,52
30,378.3,378.17,359.75,200.37,127.1,78.54,58.97,46.93,36.29,33.93,0.0375,25900,25,52
31,378.25,378.04,359.32,200.25,127.03,78.5,58.92,46.87,36.26,33.93,0.0375,25900,25,52
32,378.25,377.95,358.97,200.09,126.97,78.48,58.91,46.83,36.24,33.9,0.0375,25900,25,52
33,378.23,377.87,358.79,199.99,126.94,78.45,58.82,46.81,36.21,33.88,0.0375,25900,25,52
34,378.07,377.82,358.67,199.99,126.9,78.45,58.81,46.85,36.19,33.84,0.0375,25900,25,52
35,377.98,377.78,358.56,199.99,126.9,78.44,58.82,46.84,36.16,33.87,0.0375,25900,25,52
36,377.97,377.72,358.54,200.0,126.9,78.44,58.84,46.83,36.14,33.86,0.0375,25900,25,52
37,378.03,377.68,358.47,199.98,126.88,78.45,58.83,46.79,36.12,33.85,0.0375,25900,25,52
38,378.05,377.62,358.44,200.04,126.88,78.44,58.81,46.76,36.1,33.85,0.0375,25900,25,52
39,378.07,377.5,358.23,200.06,126.87,78.44,58.78,46.71,36.06,33.81,0.0375,25900,25,52
40,378.02,377.41,358.14,200.3,126.87,78.6,58.74,46.88,36.02,33.79,0.0375,25900,25,52
41,378.01,377.35,358.12,200.0,126.88,78.48,58.74,47.69,36.0,33.77,0.0375,25900,25,52
42,377.98,377.32,358.14,200.05,126.9,78.43,58.76,46.61,35.99,33.77,0.0375,25900,25,52
43,377.99,377.27,358.1,201.35,126.9,79.64,58.81,47.67,36.0,33.76,0.0375,25900,25,52
44,377.97,377.23,358.19,200.06,126.89,78.45,58.77,46.54,35.98,33.74,0.0375,25900,25,52
45,378.05,377.18,358.59,201.2,126.88,78.93,58.75,46.97,35.95,33.85,0.0375,25900,25,52
46,378.09,377.16,359.02,200.14,126.86,78.47,58.71,47.49,35.94,33.75,0.0375,25900,25,52
47,378.08,377.09,359.56,200.73,126.86,78.93,58.66,46.94,35.92,33.73,0.0375,25900,25,52
48,378.03,377.02,360.13,201.28,126.87,79.29,58.68,47.32,35.91,33.71,0.0375,25900,25,52
49,377.99,376.99,360.43,200.1,126.87,78.41,58.7,46.49,35.94,33.68,0.0375,25900,25,52
50,377.98,376.96,360.68,200.89,126.85,79.05,58.7,46.89,35.92,33.7,0.0375,25900,25,52
51,377.94,376.94,360.95,199.96,126.82,78.38,58.69,47.13,35.92,33.7,0.0375,25900,25,52
52,377.9,376.9,361.21,200.36,126.82,78.77,58.67,46.81,35.91,33.69,0.0375,25900,25,52
53,377.85,376.91,361.46,201.04,126.84,79.02,58.68,47.01,35.91,33.69,0.0375,25900,25,52
54,377.8,376.98,361.69,200.26,126.84,78.37,58.67,46.46,35.91,33.68,0.0375,25900,25,52
55,377.76,377.06,361.93,200.66,126.84,78.87,58.65,46.94,35.89,33.67,0.0375,25900,25,52
56,377.71,377.05,362.35,200.15,126.84,78.34,58.58,46.94,35.86,33.61,0.0375,25900,25,52
57,377.65,377.18,362.88,200.27,126.86,78.33,58.52,46.36,35.83,33.62,0.0375,25900,25,52
58,377.67,377.27,363.23,200.32,126.89,78.33,58.49,46.35,35.82,33.6,0.0375,25900,25,52
59,377.61,377.46,363.42,200.47,126.94,78.32,58.45,46.33,35.8,33.59,0.0375,25900,25,52
60,377.58,377.47,363.4,200.6,126.97,78.31,58.42,46.3,35.78,33.58,0.0375,25900,25,52
61,377.54,377.47,363.29,200.64,126.97,78.28,58.42,46.28,35.76,33.57,0.0375,25900,25,52
62,377.49,377.56,363.11,200.71,126.97,78.28,58.41,46.28,35.74,33.55,0.0375,25900,25,52
63,377.45,377.64,362.83,200.74,126.97,78.28,58.44,46.29,35.72,33.52,0.0375,25900,25,52
64,377.43,377.76,362.55,200.73,126.99,78.28,58.44,46.27,35.71,33.54,0.0375,25900,25,52
65,377.47,377.96,362.3,200.74,127.01,78.28,58.41,46.23,35.68,33.53,0.0375,25900,25,52
66,377.8,378.14,361.9,200.76,127.05,78.27,58.37,46.18,35.64,33.5,0.0375,25900,25,52
67,378.06,378.26,361.43,200.78,127.08,78.26,58.37,46.17,35.61,33.48,0.0375,25900,25,52
68,378.14,378.31,361.11,200.77,127.08,78.26,58.41,46.2,35.61,33.47,0.0375,25900,25,52
69,378.22,378.3,360.69,200.74,127.06,78.25,58.41,46.19,35.6,33.48,0.0375,25900,25,52
70,378.32,378.27,360.36,200.72,127.04,78.25,58.46,46.23,35.59,33.46,0.0375,25900,25,52
71,378.37,378.24,360.04,200.71,127.03,78.23,58.47,46.24,35.59,33.36,0.0375,25900,25,52
72,378.33,378.2,359.69,200.68,127.02,78.24,58.49,46.22,35.6,33.45,0.0375,25900,25,52
73,378.3,378.14,359.41,200.62,127.01,78.22,58.47,46.18,35.59,33.44,0.0375,25900,25,52
74,378.25,378.04,359.15,200.67,127.0,78.24,58.42,46.15,35.56,33.43,0.0375,25900,25,52
75,378.22,377.96,358.89,200.6,126.96,78.2,58.37,46.09,35.54,33.42,0.0375,25900,25,52
76,378.23,377.92,358.68,200.9,126.96,78.18,58.36,46.06,35.51,33.41,0.0375,25900,25,52
77,378.24,377.89,358.53,201.28,126.96,78.9,58.36,46.83,35.5,33.38,0.0375,25900,25,52
78,378.28,377.86,358.53,200.56,126.97,78.21,58.35,46.1,35.49,33.37,0.0375,25900,25,52
79,378.34,377.84,358.74,201.19,126.96,78.81,58.33,46.68,35.47,33.36,0.0375,25900,25,52
80,378.38,377.77,359.18,200.93,126.98,78.42,58.28,46.29,35.45,33.35,0.0375,25900,25,52
81,378.41,377.7,359.52,201.55,127.0,78.14,58.25,45.93,35.43,33.33,0.0375,25900,25,52
82,378.43,377.61,359.86,201.1,127.02,78.38,58.2,46.36,35.4,33.4,0.0375,25900,25,52
83,378.42,377.56,360.23,200.99,127.05,78.1,58.17,45.88,35.36,33.32,0.0375,25900,25,52
84,378.41,377.44,360.7,201.36,127.08,78.44,58.15,46.19,35.32,33.29,0.0375,25900,25,52
85,378.37,377.39,361.17,201.19,127.06,78.32,58.15,46.05,35.29,33.27,0.0375,25900,25,52
86,378.35,377.37,361.48,201.33,127.07,78.06,58.08,45.85,35.27,33.25,0.0375,25900,25,52
87,378.33,377.35,361.76,201.21,127.11,78.19,58.07,46.19,35.26,33.27,0.0375,25900,25,52
88,378.33,377.34,362.08,201.01,127.15,78.02,58.07,45.82,35.26,33.2,0.0375,25900,25,52
89,378.23,377.34,362.41,201.35,127.16,78.12,58.1,45.95,35.26,33.19,0.0375,25900,25,52
90,378.19,377.34,362.7,201.22,127.18,78.01,58.17,45.98,35.28,33.16,0.0375,25900,25,52
91,378.16,377.38,362.92,201.42,127.19,78.03,58.26,46.06,35.32,33.16,0.0375,25900,25,52
92,378.1,377.49,363.2,201.62,127.24,78.03,58.3,46.09,35.36,33.15,0.0375,25900,25,52
93,377.99,377.51,363.5,201.74,127.28,78.06,58.31,46.09,35.39,33.14,0.0375,25900,25,52
94,377.91,377.56,363.71,201.97,127.29,78.06,58.32,46.11,35.4,33.13,0.0375,25900,25,52
95,377.83,377.6,363.89,202.06,127.29,78.06,58.32,46.14,35.41,33.13,0.0375,25900,25,52
96,377.76,377.61,364.0,202.17,127.3,78.06,58.32,46.16,35.43,33.13,0.0375,25900,25,52
97,377.68,377.63,364.03,202.34,127.3,78.06,58.36,46.18,35.43,33.13,0.0375,25900,25,52
98,377.59,377.63,364.03,202.5,127.29,78.07,58.39,46.22,35.47,33.01,0.0375,25900,25,52
99,377.49,377.62,364.02,202.66,127.29,78.09,58.45,46.33,35.51,33.11,0.0375,25900,25,52
100,377.4,377.62,364.03,202.86,127.29,78.09,58.54,46.46,35.59,33.12,0.0375,25900,25,52
101,377.28,377.65,364.16,203.11,127.33,78.1,58.66,46.53,35.7,33.16,0.0375,25900,25,52
102,377.17,377.68,364.21,203.3,127.35,78.11,58.72,46.57,35.76,33.18,0.0375,25900,25,52
103,377.1,377.69,364.2,203.33,127.36,78.1,58.7,46.55,35.79,33.21,0.0375,25900,25,52
104,377.05,377.73,364.21,203.36,127.37,78.1,58.67,46.52,35.79,33.22,0.0375,25900,25,52
105,376.97,377.74,364.19,203.33,127.36,78.09,58.64,46.5,35.78,33.24,0.0375,25900,25,52
106,376.9,377.77,364.15,203.3,127.36,78.09,58.61,46.44,35.76,33.25,0.0375,25900,25,52
107,376.85,377.81,364.12,203.24,127.34,78.08,58.55,46.41,35.75,33.26,0.0375,25900,25,52
108,376.77,377.84,364.07,203.13,127.33,78.07,58.53,46.36,35.74,33.27,0.0375,25900,25,52
109,376.73,377.85,364.02,202.95,127.32,78.08,58.5,46.37,35.71,33.23,0.0375,25900,25,52
110,376.63,377.85,364.01,202.77,127.29,78.08,58.52,46.42,35.71,33.27,0.0375,25900,25,52
111,376.56,377.84,363.97,202.62,127.27,78.07,58.53,46.39,35.68,33.28,0.0375,25900,25,52
112,376.51,377.82,363.94,202.55,127.24,78.06,58.53,46.37,35.67,33.27,0.0375,25900,25,52
113,376.46,377.8,363.95,202.36,127.21,78.03,58.52,46.3,35.63,33.35,0.0375,25900,25,52
114,376.42,377.81,364.0,202.19,127.16,78.01,58.51,46.26,35.61,33.3,0.0375,25900,25,52
115,376.38,377.78,364.09,202.06,127.1,77.99,58.49,46.26,35.59,33.29,0.0375,25900,25,52
116,376.33,377.78,364.18,201.86,127.04,77.97,58.45,46.22,35.57,33.29,0.0375,25900,25,52
117,376.29,377.76,364.26,201.74,127.0,77.93,58.43,46.18,35.55,33.28,0.0375,25900,25,52
118,376.25,377.74,364.33,201.71,126.96,77.92,58.36,46.16,35.53,33.26,0.0375,25900,25,52
119,376.16,377.72,364.4,201.65,126.91,77.92,58.28,46.13,35.5,33.25,0.0375,25900,25,52
120,376.09,377.7,364.46,201.53,126.85,77.88,58.23,46.09,35.49,33.23,0.0375,25900,25,52
121,376.04,377.69,364.54,201.42,126.83,77.89,58.21,46.11,35.48,33.22,0.0375,25900,25,52
122,375.99,377.69,364.67,201.31,126.8,77.88,58.25,46.17,35.49,33.23,0.0375,25900,25,52
123,375.93,377.69,364.76,201.27,126.77,77.89,58.31,46.21,35.5,33.21,0.0375,25900,25,52
124,375.84,377.7,364.82,201.34,126.77,77.91,58.33,46.31,35.51,33.21,0.0375,25900,25,52
125,375.81,377.68,364.86,201.37,126.75,77.91,58.4,46.41,35.52,33.2,0.0375,25900,25,52
126,375.76,377.7,364.89,201.38,126.73,77.92,58.45,46.46,35.52,33.2,0.0375,25900,25,52
127,375.71,377.7,364.92,201.42,126.72,77.93,58.45,46.46,35.55,33.2,0.0375,25900,25,52
128,375.64,377.69,364.94,201.46,126.75,77.93,58.47,46.47,35.57,33.16,0.0375,25900,25,52
129,375.58,377.69,364.94,201.59,126.77,77.93,58.52,46.52,35.62,33.17,0.0375,25900,25,52
130,375.55,377.7,364.93,201.72,126.78,77.94,58.57,46.55,35.63,33.18,0.0375,25900,25,52
131,375.51,377.71,364.93,201.73,126.76,77.92,58.59,46.53,35.63,33.17,0.0375,25900,25,52
132,375.47,377.71,364.94,201.73,126.73,77.93,58.6,46.52,35.63,33.16,0.0375,25900,25,52
133,375.44,377.72,364.95,201.73,126.68,77.92,58.58,46.51,35.63,33.16,0.0375,25900,25,52
134,375.39,377.72,364.96,201.69,126.66,77.92,58.58,46.48,35.62,33.15,0.0375,25900,25,52
135,375.36,377.72,365.01,201.61,126.63,77.9,58.56,46.48,35.63,33.15,0.0375,25900,25,52
136,375.34,377.72,365.06,201.56,126.58,77.89,58.52,46.46,35.63,33.16,0.0375,25900,25,52
137,375.29,377.73,365.05,201.53,126.54,77.88,58.48,46.46,35.64,33.13,0.0375,25900,25,52
138,375.26,377.74,365.05,201.5,126.48,77.86,58.5,46.52,35.65,33.16,0.0375,25900,25,52
139,375.23,377.73,365.05,201.62,126.46,77.85,58.54,46.56,35.66,33.16,0.0375,25900,25,52
140,375.2,377.76,365.01,201.66,126.44,77.85,58.57,46.55,35.67,33.17,0.0375,25900,25,52
141,375.16,377.73,365.01,201.68,126.43,77.86,58.58,46.58,35.67,33.2,0.0375,25900,25,52
142,375.13,377.73,365.01,201.74,126.44,77.87,58.66,46.67,35.72,33.21,0.0375,25900,25,52
143,375.1,377.72,365.03,201.79,126.46,77.89,58.76,46.84,35.78,33.22,0.0375,25900,25,52
144,375.07,377.71,365.04,201.82,126.49,77.92,58.74,46.89,35.82,33.24,0.0375,25900,25,52
145,375.03,377.71,365.03,201.71,126.5,77.92,58.76,46.88,35.85,33.27,0.0375,25900,25,52
146,374.99,377.69,365.05,201.6,126.5,77.92,58.73,46.84,35.86,33.27,0.0375,25900,25,52
147,374.95,377.67,365.06,201.56,126.48,77.92,58.69,46.82,35.86,33.28,0.0375,25900,25,52
148,374.91,377.66,365.08,201.43,126.47,77.9,58.67,46.75,35.84,33.29,0.0375,25900,25,52
149,374.87,377.64,365.07,201.31,126.43,77.88,58.65,46.73,35.84,33.3,0.0375,25900,25,52
150,374.84,377.63,365.03,201.22,126.41,77.87,58.62,46.72,35.82,33.31,0.0375,25900,25,52
151,374.82,377.6,365.02,201.15,126.4,77.86,58.6,46.71,35.81,33.33,0.0375,25900,25,52
152,374.79,377.6,365.07,201.16,126.39,77.85,58.58,46.71,35.8,33.31,0.0375,25900,25,52
153,374.77,377.6,365.16,201.19,126.4,77.85,58.55,46.68,35.79,33.31,0.0375,25900,25,52
154,374.75,377.6,365.24,201.21,126.39,77.83,58.57,46.66,35.8,33.31,0.0375,25900,25,52
155,374.71,377.6,365.32,201.26,126.37,77.89,58.53,46.66,35.8,33.31,0.0375,25900,25,52
156,374.67,377.59,365.38,201.3,126.34,77.81,58.52,46.66,35.78,33.27,0.0375,25900,25,52
157,374.64,377.61,365.44,201.3,126.3,77.78,58.51,46.64,35.77,33.3,0.0375,25900,25,52
158,374.62,377.61,365.54,201.27,126.29,77.78,58.51,46.64,35.76,33.29,0.0375,25900,25,52
159,374.58,377.62,365.61,201.25,126.27,77.76,58.5,46.62,35.74,33.29,0.0375,25900,25,52
160,374.57,377.65,365.67,201.19,126.23,77.74,58.52,46.6,35.73,33.3,0.0375,25900,25,52
161,374.54,377.65,365.74,201.13,126.18,77.72,58.51,46.58,35.72,33.3,0.0375,25900,25,52
162,374.52,377.67,365.82,201.11,126.12,77.69,58.48,46.53,35.71,33.29,0.0375,25900,25,52
163,374.49,377.68,365.9,201.22,126.09,77.67,58.47,46.54,35.7,33.3,0.0375,25900,25,52
164,374.47,377.7,366.03,201.35,126.07,77.66,58.52,46.59,35.73,33.3,0.0375,25900,25,52
165,374.44,377.71,366.19,201.45,126.09,77.67,58.58,46.66,35.76,33.31,0.0375,25900,25,52
166,374.42,377.72,366.33,201.5,126.11,77.67,58.6,46.66,35.78,33.32,0.0375,25900,25,52
167,374.38,377.74,366.44,201.5,126.1,77.66,58.57,46.63,35.76,33.31,0.0375,25900,25,52
168,374.37,377.75,366.52,201.43,126.09,77.66,58.56,46.58,35.75,33.32,0.0375,25900,25,52
169,374.33,377.77,366.59,201.37,126.1,77.66,58.52,46.55,35.73,33.33,0.0375,25900,25,52
170,374.31,377.78,366.64,201.36,126.11,77.66,58.46,46.53,35.72,33.33,0.0375,25900,25,52
171,374.29,377.79,366.67,201.47,126.13,77.67,58.43,46.54,35.72,33.32,0.0375,25900,25,52
172,374.26,377.8,366.67,201.58,126.17,77.7,58.44,46.57,35.72,33.34,0.0375,25900,25,52
173,374.24,377.83,366.68,201.71,126.24,77.71,58.51,46.63,35.74,33.31,0.0375,25900,25,52
174,374.2,377.84,366.71,201.85,126.32,77.73,58.63,46.71,35.76,33.32,0.0375,25900,25,52
175,374.18,377.86,366.73,201.97,126.35,77.77,58.65,46.71,35.76,33.32,0.0375,25900,25,52
176,374.16,377.88,366.73,202.01,126.38,77.79,58.68,46.69,35.76,33.32,0.0375,25900,25,52
177,374.13,377.89,366.7,202.04,126.38,77.79,58.68,46.67,35.76,33.33,0.0375,25900,25,52
178,374.1,377.9,366.71,202.16,126.4,77.8,58.66,46.65,35.75,33.31,0.0375,25900,25,52
179,374.07,377.88,366.74,202.32,126.43,77.82,58.67,46.66,35.75,33.32,0.0375,25900,25,52
180,374.05,377.89,366.69,202.35,126.46,77.8,58.63,46.63,35.75,33.32,0.0375,25900,25,52
181,374.03,377.89,366.68,202.36,126.5,77.81,58.63,46.59,35.75,33.3,0.0375,25900,25,52
182,373.99,377.9,366.65,202.37,126.57,77.81,58.6,46.55,35.73,33.34,0.0375,25900,25,52
183,373.97,377.92,366.62,202.48,126.65,77.82,58.65,46.56,35.73,33.29,0.0375,25900,25,52
184,373.96,377.93,366.68,202.57,126.7,77.83,58.67,46.59,35.73,33.29,0.0375,25900,25,52
185,373.94,377.94,366.77,202.66,126.74,77.82,58.62,46.59,35.72,33.29,0.0375,25900,25,52
186,373.92,377.95,366.9,202.74,126.76,77.81,58.62,46.57,35.71,33.28,0.0375,25900,25,52
187,373.91,377.96,367.0,202.83,126.79,77.8,58.57,46.54,35.7,33.25,0.0375,25900,25,52
188,373.88,377.96,367.07,203.0,126.84,77.8,58.58,46.57,35.69,33.28,0.0375,25900,25,52
189,373.86,377.97,367.13,203.05,126.89,77.81,58.58,46.61,35.67,33.27,0.0375,25900,25,52
190,373.85,377.99,367.23,203.09,126.93,77.81,58.6,46.59,35.66,33.26,0.0375,25900,25,52
191,373.83,377.99,367.32,203.14,126.96,77.82,58.58,46.6,35.64,33.25,0.0375,25900,25,52
192,373.8,378.01,367.39,203.13,126.97,77.82,58.58,46.58,35.63,33.24,0.0375,25900,25,52
193,373.76,378.04,367.54,203.15,126.97,77.83,58.58,46.59,35.63,33.22,0.0375,25900,25,52
194,373.74,378.04,367.69,203.16,126.94,77.82,58.58,46.58,35.63,33.21,0.0375,25900,25,52
195,373.73,378.05,367.84,203.12,126.93,77.82,58.58,46.56,35.63,33.2,0.0375,25900,25,52
196,373.72,378.07,367.95,203.1,126.91,77.81,58.57,46.54,35.64,33.19,0.0375,25900,25,52
197,373.69,378.09,368.06,203.02,126.88,77.79,58.57,46.52,35.63,33.19,0.0375,25900,25,52
198,373.65,378.1,368.15,202.99,126.86,77.77,58.52,46.5,35.62,33.18,0.0375,25900,25,52
199,373.65,378.12,368.19,202.98,126.84,77.76,58.51,46.5,35.62,33.18,0.0375,25900,25,52
200,373.62,378.15,368.29,202.92,126.81,77.75,58.45,46.51,35.63,33.16,0.0375,25900,25,52
201,373.6,378.18,368.42,202.88,126.82,77.74,58.4,46.47,35.63,33.15,0.0375,25900,25,52
202,373.58,378.2,368.49,202.86,126.85,77.74,58.37,46.43,35.63,33.17,0.0375,25900,25,52
203,373.57,378.21,368.55,202.85,126.87,77.73,58.38,46.43,35.61,33.16,0.0375,25900,25,52
204,373.55,378.23,368.6,202.9,126.89,77.74,58.39,46.44,35.61,33.18,0.0375,25900,25,52
205,373.54,378.24,368.64,202.99,126.9,77.75,58.4,46.48,35.65,33.18,0.0375,25900,25,52
206,373.53,378.26,368.61,203.13,126.92,77.75,58.45,46.55,35.7,33.2,0.0375,25900,25,52
207,373.52,378.28,368.59,203.31,126.94,77.76,58.51,46.6,35.75,33.21,0.0375,25900,25,52
208,373.49,378.29,368.58,203.51,126.94,77.77,58.56,46.61,35.81,33.22,0.0375,25900,25,52
209,373.46,378.31,368.57,203.75,127.01,77.78,58.64,46.67,35.92,33.26,0.0375,25900,25,52
210,373.44,378.33,368.56,203.97,127.16,77.82,58.75,46.77,35.99,33.3,0.0375,25900,25,52
211,373.42,378.34,368.58,204.17,127.26,77.88,58.81,46.82,36.04,33.34,0.0375,25900,25,52
212,373.41,378.36,368.6,204.31,127.36,77.92,58.87,46.81,36.06,33.37,0.0375,25900,25,52
213,373.42,378.37,368.63,204.4,127.43,77.99,58.9,46.87,36.05,33.39,0.0375,25900,25,52
214,373.38,378.36,368.68,204.5,127.49,78.03,58.97,46.92,36.06,33.49,0.0375,25900,25,52
215,373.38,378.4,368.74,204.77,127.58,78.1,59.04,47.0,36.08,33.42,0.0375,25900,25,52
216,373.36,378.41,368.81,205.05,127.65,78.13,59.14,47.13,36.13,33.43,0.0375,25900,25,52
217,373.35,378.43,368.88,205.37,127.75,78.19,59.23,47.19,36.2,33.46,0.0375,25900,25,52
218,373.33,378.46,368.99,205.6,127.86,78.27,59.31,47.25,36.3,33.49,0.0375,25900,25,52
219,373.29,378.47,369.13,205.67,127.95,78.24,59.32,47.22,36.38,33.54,0.0375,25900,25,52
220,373.27,378.49,369.2,205.73,128.03,78.28,59.28,47.17,36.4,33.57,0.0375,25900,25,52
221,373.26,378.49,369.28,205.69,128.1,78.28,59.23,47.11,36.39,33.59,0.0375,25900,25,52
222,373.23,378.49,369.35,205.84,128.18,78.35,59.26,47.22,36.43,33.61,0.0375,25900,25,52
223,373.23,378.52,369.41,205.92,128.3,78.37,59.33,47.27,36.47,33.62,0.0375,25900,25,52
224,373.21,378.54,369.48,206.14,128.43,78.48,59.4,47.39,36.48,33.62,0.0375,25900,25,52
225,373.19,378.56,369.57,206.3,128.61,78.56,59.49,47.58,36.51,33.72,0.0375,25900,25,52
226,373.18,378.57,369.71,206.33,128.75,78.61,59.56,47.6,36.54,33.68,0.0375,25900,25,52
227,373.16,378.6,369.89,206.4,128.87,78.7,59.63,47.68,36.56,33.71,0.0375,25900,25,52
228,373.14,378.63,370.03,206.38,129.0,78.75,59.73,47.7,36.59,33.74,0.0375,25900,25,52
229,373.11,378.67,370.2,206.4,129.11,78.84,59.78,47.76,36.6,33.76,0.0375,25900,25,52
