Time,TC1_tip,TC2,TC3,TC4,TC5,TC6,TC7,TC8,TC9,TC10,h,flux,abs,surf
0,361.07,359.0,340.56,196.77,133.46,90.18,71.73,59.8,47.67,44.89,0.0375,25900,100,0.98
1,361.0,358.87,340.36,196.61,133.38,90.16,71.77,59.87,47.69,44.86,0.0375,25900,100,0.98
2,360.93,358.72,340.15,196.53,133.32,90.17,71.9,60.17,47.79,44.83,0.0375,25900,100,0.98
3,360.85,358.56,339.93,196.52,133.28,90.19,72.06,60.42,47.98,44.83,0.0375,25900,100,0.98
4,360.77,358.38,339.75,196.56,133.28,90.27,72.29,60.83,48.21,44.84,0.0375,25900,100,0.98
5,360.66,358.19,339.62,196.6,133.34,90.36,72.52,61.21,48.46,44.87,0.0375,25900,100,0.98
6,360.56,358.1,339.51,196.64,133.42,90.47,72.79,61.56,48.74,44.92,0.0375,25900,100,0.98
7,360.47,358.1,339.42,196.65,133.51,90.58,73.03,61.78,48.99,44.99,0.0375,25900,100,0.98
8,360.4,358.12,339.23,196.74,133.69,90.72,73.36,62.04,49.33,45.11,0.0375,25900,100,0.98
9,360.33,358.13,339.08,196.87,133.91,90.85,73.67,62.25,49.62,45.24,0.0375,25900,100,0.98
10,360.28,358.14,339.11,196.95,134.05,90.99,73.83,62.32,49.76,45.33,0.0375,25900,100,0.98
11,360.24,358.15,339.19,196.91,134.18,91.1,73.96,62.39,49.89,45.43,0.0375,25900,100,0.98
12,360.2,358.16,339.28,196.9,134.32,91.17,74.1,62.49,50.01,45.53,0.0375,25900,100,0.98
13,360.16,358.18,339.33,196.9,134.43,91.3,74.25,62.62,50.13,45.64,0.0375,25900,100,0.98
14,360.12,358.18,339.32,196.89,134.54,91.42,74.39,62.75,50.25,45.73,0.0375,25900,100,0.98
15,360.1,358.21,339.27,196.89,134.66,91.57,74.54,62.93,50.38,45.84,0.0375,25900,100,0.98
16,360.06,358.22,339.21,196.91,134.8,91.71,74.71,63.12,50.52,45.97,0.0375,25900,100,0.98
17,360.03,358.29,339.22,196.93,135.02,91.8,74.94,63.21,50.74,46.16,0.0375,25900,100,0.98
18,360.01,358.36,339.25,197.06,135.23,91.96,75.24,63.44,51.0,46.36,0.0375,25900,100,0.98
19,360.0,358.41,339.29,197.16,135.37,92.12,75.47,63.74,51.18,46.5,0.0375,25900,100,0.98
20,359.99,358.45,339.32,197.23,135.5,92.31,75.71,64.03,51.39,46.66,0.0375,25900,100,0.98
21,359.97,358.5,339.41,197.28,135.62,92.5,75.95,64.33,51.6,46.82,0.0375,25900,100,0.98
22,359.95,358.55,339.5,197.28,135.74,92.71,76.19,64.51,51.8,46.99,0.0375,25900,100,0.98
23,359.92,358.59,339.59,197.27,135.85,92.9,76.4,64.66,51.97,47.17,0.0375,25900,100,0.98
24,359.91,358.64,339.7,197.2,135.97,93.08,76.64,64.82,52.12,47.35,0.0375,25900,100,0.98
25,359.89,358.67,339.85,197.11,136.06,93.24,76.8,64.95,52.3,47.54,0.0375,25900,100,0.98
26,359.85,358.74,340.07,197.08,136.2,93.34,77.04,65.06,52.52,47.81,0.0375,25900,100,0.98
27,359.81,358.8,340.26,197.02,136.35,93.51,77.27,65.25,52.79,48.09,0.0375,25900,100,0.98
28,359.79,358.85,340.4,197.03,136.49,93.68,77.41,65.42,52.94,48.28,0.0375,25900,100,0.98
29,359.75,358.88,340.56,197.1,136.64,93.87,77.53,65.5,53.05,48.47,0.0375,25900,100,0.98
30,359.73,358.92,340.74,197.12,136.81,94.04,77.61,65.57,53.16,48.66,0.0375,25900,100,0.98
31,359.72,358.97,340.97,197.22,137.0,94.23,77.74,65.78,53.32,48.86,0.0375,25900,100,0.98
32,359.68,359.01,341.16,197.39,137.15,94.41,77.97,66.08,53.52,49.05,0.0375,25900,100,0.98
33,359.66,359.06,341.36,197.52,137.29,94.53,78.21,66.24,53.74,49.26,0.0375,25900,100,0.98
34,359.63,359.1,341.56,197.7,137.4,94.69,78.45,66.45,53.95,49.47,0.0375,25900,100,0.98
35,359.59,359.17,341.86,197.89,137.5,94.84,78.7,66.62,54.28,49.79,0.0375,25900,100,0.98
36,359.56,359.24,342.18,198.06,137.63,94.98,78.97,66.79,54.62,50.13,0.0375,25900,100,0.98
37,359.53,359.29,342.43,198.26,137.75,95.14,79.09,67.01,54.83,50.36,0.0375,25900,100,0.98
38,359.51,359.33,342.7,198.38,137.9,95.31,79.17,67.19,55.0,50.57,0.0375,25900,100,0.98
39,359.48,359.38,342.98,198.46,138.05,95.5,79.26,67.36,55.16,50.8,0.0375,25900,100,0.98
40,359.45,359.42,343.27,198.5,138.18,95.62,79.4,67.45,55.3,51.02,0.0375,25900,100,0.98
41,359.43,359.46,343.57,198.55,138.28,95.75,79.54,67.61,55.47,51.26,0.0375,25900,100,0.98
42,359.41,359.51,343.86,198.66,138.35,95.9,79.66,67.73,55.62,51.48,0.0375,25900,100,0.98
43,359.37,359.55,344.15,198.72,138.45,96.05,79.78,67.86,55.74,51.71,0.0375,25900,100,0.98
44,359.34,359.61,344.59,198.73,138.6,96.21,79.95,67.97,55.92,52.04,0.0375,25900,100,0.98
45,359.3,359.68,345.03,198.76,138.8,96.31,80.13,68.03,56.09,52.37,0.0375,25900,100,0.98
46,359.27,359.71,345.32,198.92,138.93,96.48,80.34,68.24,56.25,52.58,0.0375,25900,100,0.98
47,359.24,359.74,345.62,199.16,139.07,96.67,80.55,68.52,56.42,52.79,0.0375,25900,100,0.98
48,359.21,359.78,345.91,199.44,139.24,96.89,80.8,68.87,56.64,53.02,0.0375,25900,100,0.98
49,359.18,359.82,346.22,199.79,139.43,97.11,81.03,69.24,56.9,53.25,0.0375,25900,100,0.98
50,359.16,359.86,346.51,200.15,139.61,97.32,81.23,69.5,57.13,53.48,0.0375,25900,100,0.98
51,359.13,359.89,346.8,200.51,139.78,97.53,81.41,69.72,57.35,53.7,0.0375,25900,100,0.98
52,359.1,359.92,347.04,200.82,139.94,97.71,81.61,69.93,57.55,53.91,0.0375,25900,100,0.98
53,359.06,359.98,347.42,201.11,140.11,97.88,81.94,70.13,57.85,54.24,0.0375,25900,100,0.98
54,359.02,360.05,347.78,201.3,140.22,97.98,82.23,70.24,58.13,54.59,0.0375,25900,100,0.98
55,358.99,360.09,348.02,201.56,140.3,98.12,82.33,70.43,58.31,54.81,0.0375,25900,100,0.98
56,358.96,360.14,348.28,201.87,140.43,98.29,82.42,70.58,58.5,55.05,0.0375,25900,100,0.98
57,358.93,360.19,348.54,202.19,140.6,98.46,82.49,70.67,58.65,55.28,0.0375,25900,100,0.98
58,358.92,360.23,348.83,202.37,140.77,98.62,82.54,70.71,58.78,55.52,0.0375,25900,100,0.98
59,358.89,360.27,349.1,202.53,140.93,98.8,82.65,70.92,58.93,55.75,0.0375,25900,100,0.98
60,358.86,360.3,349.37,202.77,141.12,98.99,82.83,71.18,59.11,55.98,0.0375,25900,100,0.98
61,358.84,360.35,349.65,202.85,141.3,99.12,82.95,71.29,59.29,56.21,0.0375,25900,100,0.98
62,358.8,360.41,350.06,202.88,141.55,99.3,83.09,71.3,59.48,56.56,0.0375,25900,100,0.98
63,358.75,360.46,350.46,203.01,141.79,99.47,83.27,71.34,59.63,56.89,0.0375,25900,100,0.98
64,358.73,360.51,350.71,203.17,141.98,99.65,83.43,71.4,59.73,57.12,0.0375,25900,100,0.98
65,358.71,360.55,350.96,203.35,142.17,99.83,83.6,71.52,59.82,57.32,0.0375,25900,100,0.98
66,358.69,360.59,351.22,203.46,142.34,100.0,83.71,71.58,59.9,57.53,0.0375,25900,100,0.98
67,358.67,360.64,351.47,203.61,142.48,100.16,83.75,71.54,59.97,57.72,0.0375,25900,100,0.98
68,358.65,360.68,351.72,203.72,142.65,100.26,83.76,71.54,60.01,57.9,0.0375,25900,100,0.98
69,358.63,360.72,351.96,203.93,142.81,100.41,83.76,71.55,60.07,58.09,0.0375,25900,100,0.98
70,358.6,360.76,352.19,204.25,142.99,100.57,83.86,71.72,60.15,58.26,0.0375,25900,100,0.98
71,358.57,360.84,352.56,204.62,143.31,100.77,84.05,71.87,60.32,58.53,0.0375,25900,100,0.98
72,358.54,360.9,352.92,204.92,143.64,100.96,84.27,72.03,60.5,58.8,0.0375,25900,100,0.98
73,358.51,360.93,353.16,205.21,143.81,101.15,84.48,72.24,60.64,58.98,0.0375,25900,100,0.98
74,358.5,360.98,353.4,205.44,143.96,101.32,84.68,72.45,60.82,59.17,0.0375,25900,100,0.98
75,358.47,361.02,353.65,205.53,144.07,101.42,84.82,72.57,60.97,59.36,0.0375,25900,100,0.98
76,358.45,361.06,353.89,205.65,144.18,101.59,84.96,72.73,61.14,59.53,0.0375,25900,100,0.98
77,358.42,361.1,354.12,205.82,144.31,101.78,85.08,72.85,61.29,59.71,0.0375,25900,100,0.98
78,358.39,361.15,354.33,206.06,144.5,101.99,85.27,73.07,61.46,59.9,0.0375,25900,100,0.98
79,358.38,361.19,354.54,206.41,144.68,102.21,85.51,73.34,61.65,60.08,0.0375,25900,100,0.98
80,358.34,361.25,354.86,206.78,144.97,102.43,85.83,73.57,61.97,60.37,0.0375,25900,100,0.98
81,358.3,361.31,355.2,207.14,145.2,102.62,86.11,73.81,62.31,60.66,0.0375,25900,100,0.98
82,358.28,361.35,355.4,207.36,145.33,102.73,86.3,73.92,62.52,60.87,0.0375,25900,100,0.98
83,358.26,361.4,355.58,207.65,145.43,102.88,86.5,74.05,62.75,61.08,0.0375,25900,100,0.98
84,358.25,361.44,355.77,207.9,145.55,103.03,86.69,74.17,62.95,61.29,0.0375,25900,100,0.98
85,358.24,361.49,355.95,208.09,145.66,103.18,86.85,74.34,63.14,61.5,0.0375,25900,100,0.98
86,358.21,361.53,356.15,208.42,145.82,103.34,87.0,74.59,63.37,61.71,0.0375,25900,100,0.98
87,358.19,361.58,356.36,208.84,145.99,103.54,87.1,74.88,63.6,61.94,0.0375,25900,100,0.98
88,358.18,361.62,356.57,209.23,146.19,103.74,87.18,75.1,63.83,62.15,0.0375,25900,100,0.98
89,358.15,361.68,356.85,209.41,146.47,103.86,87.3,75.12,64.05,62.46,0.0375,25900,100,0.98
90,358.11,361.73,357.15,209.53,146.74,104.01,87.32,75.01,64.12,62.76,0.0375,25900,100,0.98
91,358.1,361.78,357.36,209.64,146.92,104.13,87.36,74.95,64.17,62.96,0.0375,25900,100,0.98
92,358.09,361.82,357.57,209.72,147.07,104.26,87.43,74.97,64.23,63.16,0.0375,25900,100,0.98
93,358.08,361.87,357.77,209.73,147.19,104.37,87.53,75.12,64.32,63.34,0.0375,25900,100,0.98
94,358.06,361.92,357.98,209.74,147.27,104.5,87.65,75.31,64.47,63.52,0.0375,25900,100,0.98
95,358.04,361.96,358.17,209.77,147.37,104.61,87.75,75.42,64.61,63.7,0.0375,25900,100,0.98
96,358.03,362.01,358.36,209.87,147.49,104.7,87.85,75.53,64.71,63.89,0.0375,25900,100,0.98
97,358.01,362.05,358.52,210.07,147.63,104.84,87.93,75.69,64.83,64.07,0.0375,25900,100,0.98
98,357.98,362.11,358.76,210.36,147.89,105.0,88.06,75.75,64.95,64.33,0.0375,25900,100,0.98
99,357.96,362.18,359.02,210.62,148.2,105.15,88.2,75.82,65.06,64.59,0.0375,25900,100,0.98
100,357.95,362.22,359.23,210.88,148.39,105.29,88.24,75.91,65.12,64.76,0.0375,25900,100,0.98
101,357.94,362.26,359.43,211.09,148.56,105.43,88.28,75.98,65.17,64.91,0.0375,25900,100,0.98
102,357.92,362.3,359.66,211.29,148.73,105.55,88.31,76.0,65.22,65.06,0.0375,25900,100,0.98
103,357.9,362.34,359.88,211.36,148.9,105.63,88.32,75.95,65.26,65.21,0.0375,25900,100,0.98
104,357.89,362.4,360.06,211.5,149.06,105.73,88.32,75.92,65.28,65.35,0.0375,25900,100,0.98
105,357.88,362.44,360.24,211.63,149.2,105.83,88.34,75.93,65.34,65.5,0.0375,25900,100,0.98
106,357.87,362.49,360.41,211.7,149.3,105.91,88.38,75.99,65.39,65.64,0.0375,25900,100,0.98
107,357.85,362.57,360.65,211.9,149.49,106.01,88.42,76.04,65.51,65.82,0.0375,25900,100,0.98
108,357.83,362.63,360.9,212.11,149.73,106.12,88.43,76.08,65.62,66.01,0.0375,25900,100,0.98
109,357.81,362.68,361.08,212.27,149.88,106.22,88.43,76.08,65.68,66.13,0.0375,25900,100,0.98
110,357.8,362.72,361.26,212.3,150.01,106.28,88.43,76.09,65.75,66.25,0.0375,25900,100,0.98
111,357.79,362.76,361.43,212.35,150.13,106.38,88.42,76.11,65.82,66.38,0.0375,25900,100,0.98
112,357.78,362.81,361.58,212.39,150.23,106.46,88.43,76.18,65.88,66.5,0.0375,25900,100,0.98
113,357.76,362.85,361.73,212.47,150.33,106.55,88.5,76.25,65.97,66.62,0.0375,25900,100,0.98
114,357.75,362.91,361.89,212.62,150.44,106.66,88.59,76.4,66.06,66.74,0.0375,25900,100,0.98
115,357.74,362.95,362.03,212.84,150.55,106.77,88.7,76.61,66.21,66.86,0.0375,25900,100,0.98
116,357.72,363.01,362.27,213.02,150.74,106.91,88.78,76.79,66.42,67.02,0.0375,25900,100,0.98
117,357.69,363.08,362.48,213.13,150.91,106.98,89.02,76.94,66.69,67.2,0.0375,25900,100,0.98
118,357.69,363.13,362.61,213.39,151.01,107.11,89.21,77.12,66.85,67.34,0.0375,25900,100,0.98
119,357.68,363.17,362.72,213.66,151.14,107.23,89.35,77.2,66.97,67.48,0.0375,25900,100,0.98
120,357.66,363.2,362.84,213.92,151.31,107.37,89.5,77.33,67.1,67.61,0.0375,25900,100,0.98
121,357.66,363.26,363.0,214.16,151.48,107.53,89.68,77.53,67.22,67.75,0.0375,25900,100,0.98
122,357.65,363.31,363.16,214.41,151.65,107.68,89.85,77.67,67.36,67.9,0.0375,25900,100,0.98
123,357.63,363.35,363.32,214.66,151.85,107.83,89.96,77.76,67.43,68.03,0.0375,25900,100,0.98
124,357.62,363.4,363.49,214.83,152.03,107.94,90.09,77.87,67.5,68.16,0.0375,25900,100,0.98
125,357.6,363.46,363.73,215.09,152.32,108.09,90.27,78.04,67.64,68.35,0.0375,25900,100,0.98
126,357.59,363.53,363.97,215.34,152.6,108.23,90.46,78.2,67.83,68.54,0.0375,25900,100,0.98
127,357.58,363.58,364.13,215.58,152.74,108.38,90.64,78.45,68.04,68.68,0.0375,25900,100,0.98
128,357.57,363.63,364.29,215.83,152.87,108.53,90.86,78.77,68.26,68.84,0.0375,25900,100,0.98
129,357.57,363.68,364.44,216.06,152.97,108.68,91.08,79.05,68.5,68.97,0.0375,25900,100,0.98
130,357.55,363.73,364.58,216.33,153.09,108.82,91.27,79.25,68.7,69.12,0.0375,25900,100,0.98
131,357.54,363.77,364.72,216.54,153.26,108.93,91.41,79.31,68.87,69.28,0.0375,25900,100,0.98
132,357.53,363.82,364.87,216.85,153.44,109.07,91.49,79.24,68.98,69.44,0.0375,25900,100,0.98
133,357.52,363.87,365.03,217.06,153.59,109.2,91.53,79.23,69.05,69.6,0.0375,25900,100,0.98
134,357.52,363.95,365.28,217.17,153.81,109.32,91.6,79.24,69.15,69.81,0.0375,25900,100,0.98
135,357.5,364.01,365.5,217.2,153.99,109.41,91.55,79.15,69.18,70.01,0.0375,25900,100,0.98
136,357.49,364.05,365.64,217.19,154.09,109.51,91.52,79.11,69.2,70.13,0.0375,25900,100,0.98
137,357.47,364.11,365.79,217.2,154.15,109.59,91.56,79.12,69.24,70.25,0.0375,25900,100,0.98
138,357.47,364.15,365.93,217.21,154.18,109.63,91.57,79.13,69.28,70.37,0.0375,25900,100,0.98
139,357.46,364.21,366.05,217.21,154.21,109.69,91.53,79.05,69.3,70.49,0.0375,25900,100,0.98
140,357.46,364.26,366.17,217.18,154.25,109.74,91.48,78.95,69.32,70.59,0.0375,25900,100,0.98
141,357.45,364.31,366.28,217.11,154.27,109.78,91.43,78.86,69.32,70.69,0.0375,25900,100,0.98
142,357.44,364.38,366.43,217.14,154.33,109.83,91.36,78.77,69.31,70.82,0.0375,25900,100,0.98
143,357.43,364.45,366.6,217.31,154.43,109.86,91.27,78.73,69.32,70.95,0.0375,25900,100,0.98
144,357.43,364.5,366.69,217.42,154.48,109.91,91.24,78.81,69.35,71.02,0.0375,25900,100,0.98
145,357.41,364.54,366.8,217.54,154.51,109.94,91.32,78.91,69.42,71.11,0.0375,25900,100,0.98
146,357.4,364.58,366.93,217.69,154.55,109.97,91.37,79.02,69.49,71.21,0.0375,25900,100,0.98
147,357.4,364.63,367.05,217.81,154.6,110.02,91.44,79.11,69.58,71.3,0.0375,25900,100,0.98
148,357.4,364.68,367.17,217.94,154.67,110.08,91.45,79.12,69.67,71.39,0.0375,25900,100,0.98
149,357.4,364.72,367.27,218.06,154.75,110.14,91.44,79.14,69.72,71.47,0.0375,25900,100,0.98
150,357.38,364.76,367.39,218.17,154.83,110.2,91.47,79.21,69.8,71.56,0.0375,25900,100,0.98
151,357.38,364.81,367.5,218.27,154.89,110.26,91.52,79.25,69.86,71.64,0.0375,25900,100,0.98
152,357.38,364.88,367.67,218.34,154.99,110.31,91.62,79.32,69.98,71.78,0.0375,25900,100,0.98
153,357.38,364.96,367.83,218.53,155.05,110.37,91.81,79.47,70.14,71.91,0.0375,25900,100,0.98
154,357.36,365.0,367.91,218.67,155.08,110.43,91.91,79.65,70.27,72.01,0.0375,25900,100,0.98
155,357.38,365.06,367.99,218.78,155.14,110.5,92.01,79.8,70.4,72.11,0.0375,25900,100,0.98
156,357.37,365.09,368.08,218.9,155.21,110.58,92.08,79.93,70.52,72.2,0.0375,25900,100,0.98
157,357.36,365.13,368.17,219.03,155.3,110.66,92.11,79.9,70.62,72.3,0.0375,25900,100,0.98
158,357.35,365.18,368.29,219.14,155.39,110.74,92.08,79.79,70.66,72.4,0.0375,25900,100,0.98
159,357.36,365.23,368.4,219.29,155.5,110.78,92.02,79.74,70.69,72.48,0.0375,25900,100,0.98
160,357.36,365.27,368.5,219.49,155.62,110.84,91.98,79.67,70.71,72.57,0.0375,25900,100,0.98
161,357.34,365.34,368.64,219.59,155.76,110.89,91.92,79.62,70.7,72.68,0.0375,25900,100,0.98
162,357.34,365.41,368.79,219.64,155.86,110.92,91.98,79.64,70.73,72.8,0.0375,25900,100,0.98
163,357.34,365.46,368.89,219.68,155.89,110.95,91.99,79.66,70.75,72.87,0.0375,25900,100,0.98
164,357.33,365.5,368.99,219.69,155.92,110.99,92.02,79.7,70.78,72.93,0.0375,25900,100,0.98
165,357.33,365.55,369.1,219.7,155.93,111.03,92.01,79.68,70.8,73.0,0.0375,25900,100,0.98
166,357.32,365.6,369.21,219.72,155.95,111.04,92.02,79.69,70.82,73.07,0.0375,25900,100,0.98
167,357.32,365.65,369.3,219.71,155.96,111.09,92.03,79.72,70.86,73.13,0.0375,25900,100,0.98
168,357.31,365.69,369.38,219.7,156.0,111.17,92.06,79.77,70.91,73.19,0.0375,25900,100,0.98
169,357.31,365.74,369.45,219.77,156.07,111.23,92.12,79.88,70.98,73.26,0.0375,25900,100,0.98
170,357.31,365.8,369.58,219.93,156.2,111.32,92.26,80.03,71.11,73.36,0.0375,25900,100,0.98
171,357.32,365.88,369.73,220.16,156.35,111.4,92.55,80.27,71.29,73.48,0.0375,25900,100,0.98
172,357.32,365.93,369.84,220.28,156.4,111.46,92.74,80.49,71.43,73.56,0.0375,25900,100,0.98
173,357.31,365.97,369.95,220.31,156.46,111.5,92.89,80.59,71.51,73.64,0.0375,25900,100,0.98
174,357.31,366.02,370.05,220.5,156.56,111.61,93.07,80.77,71.59,73.73,0.0375,25900,100,0.98
175,357.31,366.07,370.15,220.69,156.65,111.71,93.22,80.89,71.67,73.8,0.0375,25900,100,0.98
176,357.31,366.11,370.26,220.79,156.7,111.82,93.38,81.06,71.78,73.9,0.0375,25900,100,0.98
177,357.31,366.16,370.37,220.91,156.76,111.91,93.49,81.16,71.87,73.99,0.0375,25900,100,0.98
178,357.31,366.21,370.46,220.95,156.86,112.0,93.61,81.19,71.98,74.13,0.0375,25900,100,0.98
179,357.31,366.3,370.66,221.01,156.97,112.09,93.77,81.33,72.11,74.26,0.0375,25900,100,0.98
180,357.31,366.36,370.76,221.09,157.05,112.17,93.87,81.42,72.2,74.35,0.0375,25900,100,0.98
181,357.3,366.4,370.86,221.24,157.15,112.29,93.97,81.64,72.36,74.45,0.0375,25900,100,0.98
182,357.31,366.45,370.96,221.53,157.27,112.43,94.01,81.89,72.53,74.57,0.0375,25900,100,0.98
183,357.32,366.51,371.06,221.87,157.38,112.57,94.04,82.15,72.72,74.67,0.0375,25900,100,0.98
184,357.33,366.55,371.13,222.25,157.44,112.71,94.08,82.39,72.89,74.75,0.0375,25900,100,0.98
185,357.32,366.59,371.19,222.5,157.52,112.84,94.12,82.5,73.06,74.84,0.0375,25900,100,0.98
186,357.32,366.64,371.24,222.55,157.62,112.93,94.2,82.51,73.21,74.94,0.0375,25900,100,0.98
187,357.31,366.69,371.31,222.52,157.73,112.98,94.35,82.52,73.31,75.04,0.0375,25900,100,0.98
188,357.32,366.76,371.45,222.51,157.83,113.07,94.53,82.55,73.42,75.23,0.0375,25900,100,0.98
189,357.33,366.82,371.58,222.45,157.91,113.14,94.62,82.51,73.5,75.4,0.0375,25900,100,0.98
190,357.32,366.88,371.67,222.42,157.99,113.2,94.65,82.45,73.52,75.49,0.0375,25900,100,0.98
191,357.32,366.92,371.77,222.46,158.05,113.26,94.76,82.55,73.58,75.6,0.0375,25900,100,0.98
192,357.32,366.96,371.89,222.43,158.1,113.33,94.86,82.68,73.66,75.7,0.0375,25900,100,0.98
193,357.32,367.01,371.99,222.36,158.15,113.4,94.91,82.75,73.73,75.8,0.0375,25900,100,0.98
194,357.33,367.06,372.1,222.37,158.26,113.46,94.96,82.81,73.8,75.89,0.0375,25900,100,0.98
195,357.33,367.11,372.21,222.43,158.37,113.56,95.1,83.03,73.93,75.99,0.0375,25900,100,0.98
196,357.33,367.15,372.29,222.55,158.4,113.64,95.28,83.23,74.08,76.09,0.0375,25900,100,0.98
197,357.34,367.23,372.43,222.72,158.46,113.72,95.47,83.34,74.24,76.26,0.0375,25900,100,0.98
198,357.34,367.31,372.56,222.87,158.55,113.82,95.64,83.43,74.36,76.41,0.0375,25900,100,0.98
199,357.35,367.35,372.64,222.86,158.62,113.9,95.7,83.46,74.43,76.52,0.0375,25900,100,0.98
200,357.35,367.38,372.73,222.89,158.72,114.0,95.74,83.53,74.49,76.61,0.0375,25900,100,0.98
201,357.36,367.43,372.8,222.97,158.85,114.07,95.78,83.57,74.53,76.71,0.0375,25900,100,0.98
202,357.36,367.48,372.88,223.15,158.99,114.18,95.84,83.64,74.6,76.81,0.0375,25900,100,0.98
203,357.37,367.53,372.95,223.35,159.12,114.29,95.97,83.7,74.7,76.91,0.0375,25900,100,0.98
204,357.37,367.57,373.01,223.51,159.25,114.42,96.06,83.7,74.77,77.01,0.0375,25900,100,0.98
205,357.37,367.63,373.09,223.52,159.36,114.53,96.14,83.7,74.85,77.11,0.0375,25900,100,0.98
206,357.39,367.7,373.19,223.53,159.49,114.63,96.27,83.8,74.92,77.24,0.0375,25900,100,0.98
207,357.39,367.77,373.28,223.62,159.62,114.74,96.45,83.94,75.06,77.38,0.0375,25900,100,0.98
208,357.4,367.81,373.34,223.72,159.7,114.82,96.52,84.06,75.17,77.47,0.0375,25900,100,0.98
209,357.4,367.85,373.41,223.8,159.8,114.93,96.55,84.05,75.21,77.54,0.0375,25900,100,0.98
210,357.4,367.9,373.49,223.91,159.9,115.04,96.58,84.06,75.27,77.64,0.0375,25900,100,0.98
211,357.41,367.95,373.56,224.16,160.03,115.16,96.67,84.22,75.37,77.71,0.0375,25900,100,0.98
212,357.42,367.98,373.61,224.34,160.13,115.27,96.8,84.35,75.48,77.8,0.0375,25900,100,0.98
213,357.42,368.04,373.67,224.49,160.21,115.37,96.94,84.52,75.61,77.88,0.0375,25900,100,0.98
214,357.42,368.08,373.72,224.73,160.3,115.48,97.06,84.59,75.71,77.97,0.0375,25900,100,0.98
215,357.43,368.15,373.82,224.88,160.48,115.55,97.15,84.6,75.82,78.1,0.0375,25900,100,0.98
216,357.44,368.22,373.93,225.1,160.68,115.68,97.31,84.74,75.97,78.24,0.0375,25900,100,0.98
217,357.45,368.26,374.0,225.32,160.81,115.81,97.42,84.96,76.09,78.33,0.0375,25900,100,0.98
218,357.46,368.32,374.09,225.57,160.98,115.96,97.49,85.04,76.16,78.42,0.0375,25900,100,0.98
219,357.46,368.36,374.15,225.76,161.16,116.09,97.53,85.06,76.21,78.5,0.0375,25900,100,0.98
220,357.47,368.42,374.25,225.89,161.34,116.23,97.58,85.14,76.27,78.58,0.0375,25900,100,0.98
