Time,TC1_tip,TC2,TC3,TC4,TC5,TC6,TC7,TC8,TC9,TC10,h,flux,abs,surf
0,359.75,359.03,359.76,360.24,359.68,361.45,358.93,359.55,357.07,333.49,0.1575,25900,3,0.98
1,359.7,359.02,359.75,360.27,359.67,361.47,358.98,359.77,357.08,333.26,0.1575,25900,3,0.98
2,359.79,359.22,359.82,360.32,359.74,361.51,359.31,360.01,357.42,333.09,0.1575,25900,3,0.98
3,359.93,359.45,359.94,360.47,359.86,361.59,359.71,360.38,357.88,333.03,0.1575,25900,3,0.98
4,360.04,359.55,360.04,360.63,359.96,361.7,359.96,360.71,358.16,333.0,0.1575,25900,3,0.98
5,360.15,359.66,360.13,360.8,360.07,361.82,360.2,360.99,358.48,332.97,0.1575,25900,3,0.98
6,360.2,359.73,360.22,360.96,360.19,361.94,360.41,361.25,358.79,332.96,0.1575,25900,3,0.98
7,360.21,359.78,360.28,361.13,360.32,362.06,360.58,361.45,359.07,332.96,0.1575,25900,3,0.98
8,360.24,359.84,360.36,361.29,360.43,362.19,360.76,361.6,359.34,332.98,0.1575,25900,3,0.98
9,360.3,359.93,360.43,361.38,360.53,362.26,360.94,361.7,359.6,333.06,0.1575,25900,3,0.98
10,360.37,360.02,360.52,361.52,360.63,362.37,361.12,361.78,359.81,333.14,0.1575,25900,3,0.98
11,360.48,360.15,360.65,361.64,360.76,362.47,361.33,361.8,360.11,333.3,0.1575,25900,3,0.98
12,360.6,360.29,360.78,361.75,360.84,362.55,361.49,361.8,360.37,333.48,0.1575,25900,3,0.98
13,360.7,360.41,360.87,361.83,360.89,362.62,361.58,361.79,360.54,333.61,0.1575,25900,3,0.98
14,360.82,360.54,360.97,361.91,360.94,362.69,361.65,361.81,360.7,333.72,0.1575,25900,3,0.98
15,360.94,360.68,361.07,361.96,360.98,362.77,361.7,361.88,360.85,333.79,0.1575,25900,3,0.98
16,361.07,360.81,361.14,362.0,361.02,362.82,361.78,361.96,360.95,333.83,0.1575,25900,3,0.98
17,361.18,360.96,361.2,362.08,361.04,362.89,361.85,362.1,361.0,333.84,0.1575,25900,3,0.98
18,361.3,361.09,361.23,362.16,361.07,362.93,361.92,362.24,361.0,333.85,0.1575,25900,3,0.98
19,361.41,361.21,361.24,362.25,361.1,362.94,361.94,362.26,360.94,333.89,0.1575,25900,3,0.98
20,361.54,361.36,361.22,362.31,361.12,362.92,361.95,362.26,360.82,334.02,0.1575,25900,3,0.98
21,361.65,361.49,361.24,362.34,361.14,362.93,361.96,362.24,360.72,334.19,0.1575,25900,3,0.98
22,361.7,361.59,361.29,362.38,361.15,362.95,361.99,362.23,360.68,334.28,0.1575,25900,3,0.98
23,361.76,361.67,361.35,362.39,361.15,362.99,362.03,362.31,360.66,334.37,0.1575,25900,3,0.98
24,361.83,361.74,361.41,362.38,361.14,363.05,362.04,362.38,360.63,334.47,0.1575,25900,3,0.98
25,361.9,361.79,361.5,362.37,361.13,363.08,362.07,362.4,360.63,334.57,0.1575,25900,3,0.98
26,361.95,361.82,361.58,362.35,361.12,363.14,362.11,362.43,360.62,334.65,0.1575,25900,3,0.98
27,361.96,361.87,361.66,362.33,361.11,363.2,362.14,362.46,360.65,334.71,0.1575,25900,3,0.98
28,361.94,361.89,361.74,362.33,361.11,363.25,362.17,362.48,360.69,334.79,0.1575,25900,3,0.98
29,361.94,361.87,361.83,362.35,361.09,363.29,362.21,362.49,360.83,334.94,0.1575,25900,3,0.98
30,361.94,361.86,361.93,362.41,361.1,363.32,362.24,362.49,361.07,335.15,0.1575,25900,3,0.98
31,361.94,361.87,361.97,362.47,361.1,363.32,362.29,362.46,361.23,335.3,0.1575,25900,3,0.98
32,361.97,361.87,361.99,362.51,361.13,363.32,362.33,362.45,361.38,335.48,0.1575,25900,3,0.98
33,361.96,361.88,362.01,362.57,361.17,363.34,362.35,362.47,361.51,335.64,0.1575,25900,3,0.98
34,361.96,361.85,362.03,362.62,361.22,363.37,362.37,362.5,361.62,335.79,0.1575,25900,3,0.98
35,361.94,361.84,362.05,362.65,361.28,363.4,362.36,362.49,361.69,335.94,0.1575,25900,3,0.98
36,361.92,361.84,362.08,362.69,361.34,363.43,362.35,362.47,361.71,336.09,0.1575,25900,3,0.98
37,361.89,361.85,362.1,362.72,361.39,363.44,362.36,362.45,361.7,336.22,0.1575,25900,3,0.98
38,361.84,361.87,362.11,362.74,361.49,363.44,362.36,362.46,361.66,336.4,0.1575,25900,3,0.98
39,361.8,361.87,362.09,362.78,361.58,363.44,362.31,362.5,361.61,336.58,0.1575,25900,3,0.98
40,361.79,361.86,362.07,362.83,361.64,363.42,362.25,362.55,361.57,336.7,0.1575,25900,3,0.98
41,361.77,361.85,362.04,362.86,361.7,363.41,362.2,362.52,361.48,336.88,0.1575,25900,3,0.98
42,361.75,361.87,362.04,362.89,361.74,363.42,362.15,362.47,361.35,337.04,0.1575,25900,3,0.98
43,361.75,361.88,362.04,362.91,361.79,363.46,362.14,362.41,361.25,337.21,0.1575,25900,3,0.98
44,361.76,361.89,362.04,362.94,361.82,363.5,362.09,362.38,361.17,337.38,0.1575,25900,3,0.98
45,361.79,361.9,362.04,362.98,361.85,363.52,362.13,362.45,361.15,337.56,0.1575,25900,3,0.98
46,361.84,361.84,362.04,363.0,361.88,363.53,362.19,362.53,361.12,337.75,0.1575,25900,3,0.98
47,361.93,361.77,362.02,363.01,361.93,363.54,362.29,362.63,361.04,337.98,0.1575,25900,3,0.98
48,362.04,361.74,361.99,362.95,361.97,363.54,362.34,362.68,361.01,338.15,0.1575,25900,3,0.98
49,362.13,361.71,361.96,362.88,361.99,363.53,362.34,362.7,361.06,338.21,0.1575,25900,3,0.98
50,362.21,361.66,361.93,362.82,361.98,363.53,362.35,362.76,361.16,338.32,0.1575,25900,3,0.98
51,362.28,361.6,361.92,362.79,361.96,363.53,362.31,362.91,361.25,338.47,0.1575,25900,3,0.98
52,362.3,361.57,361.9,362.76,361.95,363.54,362.28,362.99,361.36,338.64,0.1575,25900,3,0.98
53,362.26,361.55,361.91,362.76,361.96,363.55,362.24,362.97,361.5,338.81,0.1575,25900,3,0.98
54,362.21,361.52,361.92,362.74,361.95,363.58,362.22,362.91,361.65,338.96,0.1575,25900,3,0.98
55,362.19,361.52,361.94,362.73,361.96,363.62,362.22,362.84,361.79,339.12,0.1575,25900,3,0.98
56,362.21,361.5,361.93,362.73,361.99,363.64,362.27,362.8,361.86,339.34,0.1575,25900,3,0.98
57,362.26,361.49,361.9,362.74,362.03,363.66,362.34,362.76,361.81,339.55,0.1575,25900,3,0.98
58,362.27,361.48,361.88,362.73,362.05,363.68,362.32,362.74,361.79,339.68,0.1575,25900,3,0.98
59,362.24,361.46,361.84,362.74,362.07,363.69,362.25,362.8,361.81,339.78,0.1575,25900,3,0.98
60,362.19,361.43,361.8,362.75,362.09,363.73,362.18,362.89,361.82,339.87,0.1575,25900,3,0.98
61,362.07,361.38,361.79,362.74,362.11,363.75,362.17,362.99,361.87,339.95,0.1575,25900,3,0.98
62,361.95,361.34,361.8,362.74,362.12,363.78,362.23,363.02,361.95,340.02,0.1575,25900,3,0.98
63,361.86,361.29,361.81,362.76,362.13,363.84,362.31,363.01,362.06,340.1,0.1575,25900,3,0.98
64,361.78,361.24,361.79,362.77,362.12,363.88,362.36,362.99,362.14,340.2,0.1575,25900,3,0.98
65,361.68,361.16,361.78,362.78,362.13,363.91,362.37,362.94,362.18,340.41,0.1575,25900,3,0.98
66,361.63,361.12,361.77,362.77,362.17,363.94,362.31,362.91,362.2,340.67,0.1575,25900,3,0.98
67,361.62,361.12,361.76,362.75,362.18,363.95,362.3,362.92,362.17,340.84,0.1575,25900,3,0.98
68,361.62,361.15,361.77,362.73,362.19,363.94,362.33,362.98,362.12,341.01,0.1575,25900,3,0.98
69,361.64,361.2,361.77,362.72,362.21,363.93,362.31,363.02,362.12,341.17,0.1575,25900,3,0.98
70,361.65,361.25,361.76,362.73,362.22,363.91,362.21,363.01,362.11,341.33,0.1575,25900,3,0.98
71,361.66,361.3,361.76,362.75,362.24,363.89,362.09,363.02,362.06,341.48,0.1575,25900,3,0.98
72,361.66,361.35,361.78,362.78,362.24,363.89,362.0,363.03,361.93,341.63,0.1575,25900,3,0.98
73,361.63,361.35,361.78,362.8,362.25,363.89,361.93,363.02,361.83,341.76,0.1575,25900,3,0.98
74,361.57,361.31,361.79,362.82,362.25,363.89,361.87,363.01,361.8,341.87,0.1575,25900,3,0.98
75,361.5,361.28,361.8,362.83,362.24,363.9,361.85,362.96,361.77,341.9,0.1575,25900,3,0.98
76,361.46,361.3,361.81,362.83,362.24,363.9,361.78,362.79,361.75,341.91,0.1575,25900,3,0.98
77,361.43,361.32,361.82,362.82,362.23,363.9,361.66,362.58,361.69,341.95,0.1575,25900,3,0.98
78,361.42,361.3,361.81,362.81,362.23,363.9,361.57,362.42,361.59,341.98,0.1575,25900,3,0.98
79,361.4,361.26,361.82,362.79,362.19,363.89,361.46,362.35,361.52,342.0,0.1575,25900,3,0.98
80,361.4,361.22,361.8,362.76,362.17,363.85,361.37,362.29,361.49,342.02,0.1575,25900,3,0.98
81,361.37,361.18,361.8,362.72,362.13,363.82,361.35,362.26,361.49,342.03,0.1575,25900,3,0.98
82,361.32,361.11,361.82,362.69,362.09,363.79,361.36,362.21,361.51,342.03,0.1575,25900,3,0.98
83,361.24,360.96,361.81,362.66,362.02,363.76,361.51,362.09,361.54,342.05,0.1575,25900,3,0.98
84,361.21,360.81,361.78,362.64,361.98,363.73,361.67,361.97,361.57,342.1,0.1575,25900,3,0.98
85,361.2,360.74,361.72,362.62,361.95,363.71,361.76,361.79,361.53,342.13,0.1575,25900,3,0.98
86,361.2,360.68,361.66,362.65,361.92,363.67,361.81,361.76,361.51,342.13,0.1575,25900,3,0.98
87,361.17,360.64,361.58,362.69,361.89,363.64,361.8,361.85,361.47,342.14,0.1575,25900,3,0.98
88,361.14,360.63,361.52,362.72,361.88,363.61,361.76,361.97,361.43,342.16,0.1575,25900,3,0.98
89,361.13,360.58,361.48,362.76,361.85,363.6,361.76,362.17,361.39,342.22,0.1575,25900,3,0.98
90,361.1,360.5,361.46,362.79,361.84,363.59,361.76,362.37,361.32,342.31,0.1575,25900,3,0.98
91,361.08,360.4,361.44,362.77,361.81,363.61,361.72,362.54,361.21,342.44,0.1575,25900,3,0.98
92,361.07,360.29,361.42,362.72,361.8,363.62,361.69,362.57,361.14,342.65,0.1575,25900,3,0.98
93,361.03,360.22,361.42,362.69,361.77,363.63,361.69,362.54,361.13,342.87,0.1575,25900,3,0.98
94,360.99,360.21,361.41,362.62,361.77,363.64,361.73,362.52,361.14,343.01,0.1575,25900,3,0.98
95,360.95,360.22,361.39,362.56,361.74,363.65,361.75,362.55,361.12,343.14,0.1575,25900,3,0.98
96,360.91,360.24,361.36,362.52,361.69,363.65,361.69,362.62,361.12,343.26,0.1575,25900,3,0.98
97,360.89,360.28,361.36,362.51,361.65,363.63,361.62,362.68,361.14,343.38,0.1575,25900,3,0.98
98,360.87,360.31,361.36,362.48,361.62,363.62,361.56,362.74,361.15,343.47,0.1575,25900,3,0.98
99,360.85,360.34,361.34,362.45,361.61,363.63,361.5,362.83,361.13,343.56,0.1575,25900,3,0.98
100,360.85,360.38,361.29,362.44,361.6,363.64,361.45,362.91,361.1,343.64,0.1575,25900,3,0.98
101,360.84,360.39,361.21,362.43,361.6,363.66,361.46,362.96,361.0,343.73,0.1575,25900,3,0.98
102,360.87,360.32,361.14,362.42,361.6,363.66,361.51,362.94,361.0,343.78,0.1575,25900,3,0.98
103,360.9,360.28,361.11,362.42,361.58,363.67,361.57,362.86,361.03,343.84,0.1575,25900,3,0.98
104,360.93,360.24,361.1,362.41,361.56,363.66,361.64,362.8,361.07,343.9,0.1575,25900,3,0.98
105,360.93,360.23,361.1,362.4,361.54,363.64,361.7,362.82,361.1,343.97,0.1575,25900,3,0.98
106,360.91,360.23,361.15,362.38,361.53,363.62,361.78,362.91,361.12,344.03,0.1575,25900,3,0.98
107,360.86,360.24,361.19,362.35,361.51,363.59,361.86,362.97,361.1,344.09,0.1575,25900,3,0.98
108,360.84,360.24,361.25,362.33,361.52,363.59,361.92,362.98,361.06,344.19,0.1575,25900,3,0.98
109,360.86,360.3,361.3,362.3,361.54,363.59,361.96,362.94,361.04,344.3,0.1575,25900,3,0.98
110,360.95,360.37,361.29,362.28,361.58,363.62,362.06,362.91,361.03,344.45,0.1575,25900,3,0.98
111,361.09,360.49,361.28,362.27,361.63,363.65,362.12,362.89,361.06,344.59,0.1575,25900,3,0.98
112,361.2,360.55,361.26,362.26,361.67,363.67,362.1,362.94,361.1,344.65,0.1575,25900,3,0.98
113,361.3,360.62,361.26,362.27,361.7,363.69,362.06,362.99,361.16,344.71,0.1575,25900,3,0.98
114,361.37,360.66,361.27,362.28,361.73,363.68,362.03,362.94,361.24,344.77,0.1575,25900,3,0.98
115,361.39,360.7,361.29,362.32,361.76,363.68,362.03,362.87,361.34,344.86,0.1575,25900,3,0.98
116,361.36,360.71,361.3,362.34,361.79,363.67,362.05,362.82,361.46,344.95,0.1575,25900,3,0.98
117,361.33,360.71,361.33,362.34,361.79,363.65,362.05,362.78,361.57,345.03,0.1575,25900,3,0.98
118,361.31,360.69,361.36,362.31,361.8,363.63,362.06,362.76,361.68,345.11,0.1575,25900,3,0.98
119,361.31,360.63,361.36,362.27,361.77,363.62,362.05,362.75,361.83,345.26,0.1575,25900,3,0.98
120,361.28,360.53,361.32,362.22,361.73,363.62,362.03,362.78,361.96,345.41,0.1575,25900,3,0.98
121,361.26,360.46,361.28,362.21,361.72,363.62,361.96,362.81,362.04,345.5,0.1575,25900,3,0.98
122,361.25,360.4,361.24,362.18,361.7,363.64,361.88,362.85,362.09,345.59,0.1575,25900,3,0.98
123,361.22,360.34,361.22,362.15,361.7,363.64,361.79,362.91,362.16,345.7,0.1575,25900,3,0.98
124,361.2,360.29,361.21,362.14,361.7,363.65,361.71,362.99,362.21,345.8,0.1575,25900,3,0.98
125,361.2,360.23,361.19,362.15,361.69,363.66,361.63,363.05,362.28,345.88,0.1575,25900,3,0.98
126,361.18,360.16,361.17,362.17,361.68,363.65,361.56,363.08,362.36,345.96,0.1575,25900,3,0.98
127,361.17,360.12,361.17,362.17,361.68,363.64,361.49,363.09,362.43,346.01,0.1575,25900,3,0.98
128,361.13,360.06,361.18,362.14,361.65,363.63,361.46,363.09,362.39,346.06,0.1575,25900,3,0.98
129,361.06,359.97,361.22,362.11,361.6,363.62,361.55,363.1,362.19,346.06,0.1575,25900,3,0.98
130,361.01,359.94,361.24,362.09,361.58,363.62,361.66,363.09,362.03,346.04,0.1575,25900,3,0.98
131,360.97,359.91,361.26,362.08,361.55,363.61,361.79,363.08,361.91,346.03,0.1575,25900,3,0.98
132,360.96,359.81,361.28,362.1,361.55,363.61,361.9,363.08,361.85,346.06,0.1575,25900,3,0.98
133,360.96,359.75,361.28,362.13,361.56,363.59,361.97,363.08,361.74,346.06,0.1575,25900,3,0.98
134,360.99,359.72,361.25,362.16,361.57,363.58,362.05,363.09,361.59,346.06,0.1575,25900,3,0.98
135,360.99,359.68,361.23,362.16,361.58,363.56,362.11,363.09,361.51,346.05,0.1575,25900,3,0.98
136,360.97,359.64,361.21,362.15,361.57,363.55,362.14,363.08,361.49,346.04,0.1575,25900,3,0.98
137,360.89,359.57,361.17,362.16,361.58,363.55,362.08,363.08,361.47,346.06,0.1575,25900,3,0.98
138,360.81,359.51,361.15,362.15,361.58,363.54,361.98,363.03,361.49,346.1,0.1575,25900,3,0.98
139,360.79,359.49,361.13,362.11,361.59,363.53,361.87,362.95,361.49,346.13,0.1575,25900,3,0.98
140,360.81,359.5,361.13,362.06,361.58,363.55,361.8,362.87,361.44,346.17,0.1575,25900,3,0.98
141,360.86,359.52,361.13,361.99,361.58,363.55,361.78,362.73,361.39,346.21,0.1575,25900,3,0.98
142,360.92,359.54,361.12,361.92,361.57,363.56,361.77,362.56,361.36,346.26,0.1575,25900,3,0.98
143,360.98,359.56,361.13,361.86,361.55,363.57,361.81,362.41,361.36,346.3,0.1575,25900,3,0.98
144,361.02,359.55,361.13,361.83,361.56,363.59,361.9,362.36,361.32,346.36,0.1575,25900,3,0.98
145,361.08,359.57,361.13,361.8,361.56,363.6,362.0,362.33,361.24,346.41,0.1575,25900,3,0.98
146,361.14,359.7,361.14,361.79,361.55,363.61,362.14,362.34,361.14,346.47,0.1575,25900,3,0.98
147,361.25,359.84,361.16,361.79,361.54,363.63,362.25,362.32,361.13,346.54,0.1575,25900,3,0.98
148,361.34,359.89,361.14,361.8,361.54,363.63,362.29,362.32,361.17,346.58,0.1575,25900,3,0.98
149,361.37,359.89,361.1,361.82,361.53,363.64,362.3,362.36,361.23,346.62,0.1575,25900,3,0.98
150,361.38,359.82,361.07,361.86,361.53,363.63,362.29,362.42,361.28,346.65,0.1575,25900,3,0.98
151,361.37,359.75,361.02,361.91,361.52,363.61,362.27,362.45,361.24,346.68,0.1575,25900,3,0.98
152,361.33,359.72,360.97,361.97,361.51,363.6,362.25,362.45,361.12,346.68,0.1575,25900,3,0.98
153,361.32,359.75,360.93,362.04,361.47,363.59,362.22,362.46,361.07,346.68,0.1575,25900,3,0.98
154,361.3,359.8,360.91,362.08,361.42,363.59,362.2,362.54,361.06,346.66,0.1575,25900,3,0.98
155,361.23,359.82,360.9,362.1,361.36,363.6,362.14,362.65,361.09,346.69,0.1575,25900,3,0.98
156,361.21,359.84,360.88,362.1,361.32,363.62,362.07,362.74,361.16,346.79,0.1575,25900,3,0.98
157,361.22,359.87,360.85,362.1,361.3,363.63,362.03,362.82,361.23,346.89,0.1575,25900,3,0.98
158,361.24,359.91,360.83,362.11,361.31,363.64,361.98,362.86,361.29,347.0,0.1575,25900,3,0.98
159,361.25,359.96,360.79,362.12,361.3,363.65,361.91,362.86,361.35,347.11,0.1575,25900,3,0.98
160,361.27,359.99,360.77,362.13,361.34,363.66,361.74,362.82,361.43,347.22,0.1575,25900,3,0.98
161,361.31,360.0,360.74,362.15,361.38,363.67,361.5,362.76,361.52,347.32,0.1575,25900,3,0.98
162,361.32,359.96,360.71,362.17,361.43,363.67,361.33,362.69,361.61,347.41,0.1575,25900,3,0.98
163,361.3,359.92,360.68,362.16,361.47,363.64,361.22,362.59,361.71,347.48,0.1575,25900,3,0.98
164,361.25,359.85,360.68,362.14,361.54,363.62,361.09,362.5,361.86,347.57,0.1575,25900,3,0.98
165,361.19,359.73,360.69,362.13,361.62,363.61,360.87,362.47,362.01,347.66,0.1575,25900,3,0.98
166,361.17,359.64,360.72,362.11,361.66,363.57,360.87,362.46,362.12,347.71,0.1575,25900,3,0.98
167,361.15,359.56,360.73,362.08,361.7,363.53,360.88,362.47,362.24,347.76,0.1575,25900,3,0.98
168,361.18,359.5,360.76,362.04,361.73,363.49,360.83,362.52,362.36,347.79,0.1575,25900,3,0.98
169,361.23,359.46,360.8,362.01,361.74,363.44,360.79,362.59,362.48,347.84,0.1575,25900,3,0.98
170,361.25,359.45,360.82,361.99,361.77,363.39,360.79,362.67,362.56,347.9,0.1575,25900,3,0.98
171,361.23,359.44,360.84,361.95,361.76,363.36,360.79,362.73,362.59,347.97,0.1575,25900,3,0.98
172,361.21,359.41,360.84,361.92,361.75,363.33,360.79,362.76,362.59,348.03,0.1575,25900,3,0.98
173,361.17,359.29,360.88,361.88,361.72,363.31,360.86,362.82,362.54,348.12,0.1575,25900,3,0.98
174,361.07,359.14,360.9,361.84,361.7,363.3,360.98,362.85,362.48,348.18,0.1575,25900,3,0.98
175,361.03,359.08,360.92,361.8,361.68,363.3,361.13,362.87,362.44,348.16,0.1575,25900,3,0.98
176,360.96,359.04,360.93,361.77,361.66,363.31,361.33,362.92,362.44,348.13,0.1575,25900,3,0.98
177,360.91,359.0,360.93,361.75,361.64,363.32,361.52,362.98,362.48,348.08,0.1575,25900,3,0.98
178,360.85,358.99,360.96,361.72,361.64,363.33,361.69,363.04,362.53,348.03,0.1575,25900,3,0.98
179,360.78,358.98,360.98,361.72,361.64,363.34,361.83,363.09,362.56,347.99,0.1575,25900,3,0.98
180,360.76,358.99,361.01,361.75,361.63,363.34,361.89,363.13,362.56,347.95,0.1575,25900,3,0.98
181,360.77,358.99,361.04,361.8,361.62,363.34,361.92,363.14,362.51,347.9,0.1575,25900,3,0.98
182,360.82,359.02,361.07,361.85,361.63,363.34,361.95,363.11,362.39,347.8,0.1575,25900,3,0.98
183,360.85,359.08,361.09,361.88,361.63,363.33,361.93,363.0,362.19,347.72,0.1575,25900,3,0.98
184,360.82,359.14,361.1,361.89,361.62,363.33,361.95,362.95,362.06,347.71,0.1575,25900,3,0.98
185,360.8,359.17,361.11,361.92,361.61,363.31,362.0,362.87,361.98,347.72,0.1575,25900,3,0.98
186,360.77,359.18,361.11,361.95,361.57,363.31,362.05,362.79,361.93,347.7,0.1575,25900,3,0.98
187,360.74,359.18,361.14,361.97,361.52,363.34,362.12,362.72,361.89,347.67,0.1575,25900,3,0.98
188,360.71,359.17,361.17,361.99,361.48,363.4,362.17,362.66,361.81,347.64,0.1575,25900,3,0.98
189,360.7,359.14,361.2,362.0,361.45,363.44,362.18,362.61,361.69,347.61,0.1575,25900,3,0.98
190,360.67,359.12,361.22,362.0,361.45,363.47,362.16,362.57,361.58,347.57,0.1575,25900,3,0.98
191,360.65,359.15,361.24,362.01,361.43,363.49,362.16,362.58,361.41,347.5,0.1575,25900,3,0.98
192,360.63,359.2,361.25,362.03,361.41,363.51,362.19,362.57,361.17,347.43,0.1575,25900,3,0.98
193,360.56,359.18,361.26,362.04,361.37,363.5,362.18,362.54,360.93,347.38,0.1575,25900,3,0.98
194,360.48,359.13,361.27,362.09,361.35,363.52,362.22,362.55,360.72,347.3,0.1575,25900,3,0.98
195,360.42,359.13,361.28,362.12,361.31,363.54,362.32,362.58,360.58,347.22,0.1575,25900,3,0.98
196,360.38,359.11,361.27,362.15,361.28,363.57,362.45,362.52,360.47,347.14,0.1575,25900,3,0.98
197,360.37,359.1,361.27,362.18,361.26,363.57,362.58,362.46,360.41,347.07,0.1575,25900,3,0.98
198,360.35,359.09,361.26,362.21,361.26,363.57,362.66,362.48,360.41,347.03,0.1575,25900,3,0.98
199,360.32,359.04,361.25,362.24,361.27,363.56,362.69,362.51,360.44,346.98,0.1575,25900,3,0.98
200,360.31,358.97,361.23,362.25,361.29,363.54,362.67,362.48,360.52,346.92,0.1575,25900,3,0.98
201,360.32,358.92,361.2,362.27,361.32,363.52,362.62,362.47,360.63,346.86,0.1575,25900,3,0.98
202,360.3,358.88,361.17,362.3,361.34,363.5,362.59,362.49,360.71,346.83,0.1575,25900,3,0.98
203,360.26,358.9,361.14,362.3,361.38,363.5,362.57,362.54,360.79,346.83,0.1575,25900,3,0.98
204,360.2,358.94,361.09,362.3,361.41,363.52,362.56,362.59,360.87,346.84,0.1575,25900,3,0.98
205,360.16,358.94,361.05,362.3,361.44,363.52,362.56,362.6,360.98,346.86,0.1575,25900,3,0.98
206,360.13,358.92,361.04,362.3,361.47,363.51,362.58,362.6,361.09,346.89,0.1575,25900,3,0.98
207,360.1,358.89,361.03,362.28,361.5,363.53,362.62,362.6,361.24,346.93,0.1575,25900,3,0.98
208,360.1,358.84,361.03,362.26,361.53,363.54,362.67,362.63,361.38,346.97,0.1575,25900,3,0.98
209,360.11,358.8,361.04,362.26,361.57,363.55,362.75,362.66,361.62,347.01,0.1575,25900,3,0.98
210,360.13,358.81,361.05,362.25,361.62,363.55,362.8,362.6,361.85,347.05,0.1575,25900,3,0.98
211,360.16,358.83,361.06,362.26,361.66,363.55,362.8,362.55,361.97,347.09,0.1575,25900,3,0.98
212,360.18,358.84,361.07,362.27,361.69,363.56,362.77,362.51,362.06,347.12,0.1575,25900,3,0.98
213,360.21,358.86,361.08,362.28,361.74,363.56,362.72,362.48,362.15,347.15,0.1575,25900,3,0.98
214,360.18,358.85,361.1,362.28,361.78,363.58,362.66,362.47,362.19,347.19,0.1575,25900,3,0.98
