Time,TC1_tip,TC2,TC3,TC4,TC5,TC6,TC7,TC8,TC9,TC10,h,flux,abs,surf
0,359.62,358.8,358.9,359.24,358.55,360.39,358.13,358.75,355.29,334.5,0.1575,21250,3,0.98
1,359.57,358.76,358.84,359.24,358.54,360.38,358.19,358.92,355.3,334.24,0.1575,21250,3,0.98
2,359.61,358.85,358.86,359.3,358.58,360.43,358.5,359.24,355.65,333.95,0.1575,21250,3,0.98
3,359.72,359.01,358.96,359.4,358.67,360.51,358.88,359.56,356.04,333.83,0.1575,21250,3,0.98
4,359.79,359.14,359.05,359.51,358.74,360.6,359.08,359.79,356.29,333.8,0.1575,21250,3,0.98
5,359.88,359.29,359.15,359.62,358.84,360.69,359.24,359.94,356.53,333.8,0.1575,21250,3,0.98
6,359.98,359.44,359.25,359.69,358.92,360.76,359.38,360.0,356.76,333.83,0.1575,21250,3,0.98
7,360.08,359.6,359.36,359.79,359.02,360.86,359.56,360.09,357.02,333.88,0.1575,21250,3,0.98
8,360.2,359.75,359.47,359.9,359.12,360.95,359.72,360.25,357.26,333.96,0.1575,21250,3,0.98
9,360.31,359.88,359.58,360.01,359.21,361.03,359.89,360.42,357.46,334.0,0.1575,21250,3,0.98
10,360.42,359.98,359.7,360.11,359.3,361.13,360.04,360.61,357.66,334.02,0.1575,21250,3,0.98
11,360.55,360.11,359.84,360.22,359.42,361.22,360.25,360.78,357.95,333.98,0.1575,21250,3,0.98
12,360.67,360.26,359.98,360.32,359.53,361.32,360.37,360.93,358.28,333.96,0.1575,21250,3,0.98
13,360.77,360.37,360.06,360.4,359.61,361.37,360.39,361.03,358.5,333.97,0.1575,21250,3,0.98
14,360.88,360.43,360.14,360.49,359.7,361.47,360.36,361.19,358.71,334.0,0.1575,21250,3,0.98
15,361.01,360.48,360.2,360.59,359.8,361.56,360.35,361.3,358.87,334.04,0.1575,21250,3,0.98
16,361.12,360.52,360.26,360.65,359.89,361.65,360.38,361.35,359.02,334.13,0.1575,21250,3,0.98
17,361.23,360.57,360.33,360.7,359.98,361.73,360.48,361.37,359.14,334.21,0.1575,21250,3,0.98
18,361.34,360.63,360.38,360.75,360.07,361.82,360.59,361.39,359.29,334.29,0.1575,21250,3,0.98
19,361.43,360.69,360.43,360.78,360.14,361.92,360.71,361.38,359.42,334.38,0.1575,21250,3,0.98
20,361.53,360.76,360.44,360.82,360.21,361.98,360.87,361.38,359.61,334.5,0.1575,21250,3,0.98
21,361.58,360.88,360.42,360.88,360.25,362.07,361.01,361.42,359.78,334.64,0.1575,21250,3,0.98
22,361.6,360.94,360.4,360.94,360.28,362.12,361.01,361.52,359.87,334.74,0.1575,21250,3,0.98
23,361.63,360.94,360.39,360.97,360.31,362.18,361.0,361.65,359.94,334.85,0.1575,21250,3,0.98
24,361.66,360.91,360.38,360.97,360.36,362.2,360.92,361.75,360.01,334.96,0.1575,21250,3,0.98
25,361.71,360.87,360.39,360.95,360.38,362.21,360.83,361.79,360.04,335.08,0.1575,21250,3,0.98
26,361.75,360.84,360.42,360.94,360.41,362.21,360.81,361.84,360.08,335.18,0.1575,21250,3,0.98
27,361.77,360.88,360.43,360.96,360.4,362.2,360.84,361.85,360.12,335.28,0.1575,21250,3,0.98
28,361.8,360.89,360.46,360.98,360.39,362.2,360.89,361.77,360.15,335.39,0.1575,21250,3,0.98
29,361.83,360.83,360.5,361.02,360.39,362.2,360.95,361.67,360.18,335.51,0.1575,21250,3,0.98
30,361.85,360.79,360.56,361.07,360.37,362.21,360.97,361.63,360.16,335.61,0.1575,21250,3,0.98
31,361.84,360.74,360.6,361.13,360.37,362.22,360.93,361.65,360.1,335.68,0.1575,21250,3,0.98
32,361.8,360.71,360.63,361.16,360.4,362.19,360.85,361.72,360.02,335.77,0.1575,21250,3,0.98
33,361.72,360.67,360.66,361.2,360.4,362.13,360.74,361.75,359.93,335.83,0.1575,21250,3,0.98
34,361.6,360.64,360.67,361.21,360.42,362.09,360.64,361.73,359.87,335.94,0.1575,21250,3,0.98
35,361.51,360.58,360.69,361.19,360.44,362.0,360.6,361.68,359.85,336.05,0.1575,21250,3,0.98
36,361.43,360.53,360.69,361.15,360.46,361.94,360.6,361.66,359.84,336.15,0.1575,21250,3,0.98
37,361.37,360.47,360.69,361.13,360.47,361.91,360.65,361.64,359.86,336.26,0.1575,21250,3,0.98
38,361.29,360.41,360.67,361.1,360.46,361.89,360.71,361.66,359.9,336.38,0.1575,21250,3,0.98
39,361.21,360.41,360.63,361.09,360.44,361.88,360.75,361.7,359.99,336.52,0.1575,21250,3,0.98
40,361.18,360.43,360.61,361.09,360.42,361.88,360.81,361.74,360.03,336.63,0.1575,21250,3,0.98
41,361.16,360.43,360.58,361.11,360.41,361.89,360.86,361.75,360.05,336.76,0.1575,21250,3,0.98
42,361.14,360.43,360.55,361.13,360.38,361.9,360.89,361.69,360.05,336.9,0.1575,21250,3,0.98
43,361.13,360.43,360.53,361.14,360.35,361.91,360.9,361.63,360.03,336.99,0.1575,21250,3,0.98
44,361.12,360.42,360.51,361.14,360.35,361.93,360.89,361.53,360.03,337.08,0.1575,21250,3,0.98
45,361.11,360.41,360.49,361.14,360.34,361.94,360.88,361.39,360.04,337.14,0.1575,21250,3,0.98
46,361.1,360.43,360.48,361.16,360.34,361.96,360.89,361.27,360.09,337.21,0.1575,21250,3,0.98
47,361.1,360.44,360.47,361.18,360.35,361.98,360.93,361.16,360.17,337.34,0.1575,21250,3,0.98
48,361.1,360.48,360.48,361.19,360.38,362.0,360.95,361.11,360.26,337.51,0.1575,21250,3,0.98
49,361.11,360.51,360.5,361.2,360.39,362.02,360.93,361.02,360.31,337.64,0.1575,21250,3,0.98
50,361.1,360.51,360.52,361.21,360.41,362.06,360.88,360.94,360.34,337.74,0.1575,21250,3,0.98
51,361.1,360.48,360.52,361.25,360.41,362.1,360.78,360.91,360.33,337.84,0.1575,21250,3,0.98
52,361.12,360.46,360.54,361.27,360.41,362.13,360.71,360.86,360.31,337.96,0.1575,21250,3,0.98
53,361.16,360.45,360.55,361.29,360.4,362.17,360.69,360.84,360.3,338.07,0.1575,21250,3,0.98
54,361.19,360.46,360.56,361.28,360.41,362.21,360.68,360.93,360.29,338.19,0.1575,21250,3,0.98
55,361.22,360.45,360.58,361.27,360.39,362.25,360.74,361.04,360.27,338.37,0.1575,21250,3,0.98
56,361.25,360.43,360.59,361.28,360.37,362.29,360.82,361.18,360.27,338.55,0.1575,21250,3,0.98
57,361.29,360.41,360.59,361.28,360.36,362.32,360.88,361.26,360.28,338.68,0.1575,21250,3,0.98
58,361.33,360.42,360.57,361.29,360.34,362.35,360.9,361.25,360.29,338.8,0.1575,21250,3,0.98
59,361.38,360.43,360.56,361.31,360.35,362.39,360.9,361.24,360.27,338.9,0.1575,21250,3,0.98
60,361.43,360.43,360.54,361.31,360.37,362.39,360.91,361.23,360.24,339.0,0.1575,21250,3,0.98
61,361.49,360.45,360.5,361.31,360.39,362.39,360.97,361.25,360.21,339.1,0.1575,21250,3,0.98
62,361.59,360.48,360.48,361.33,360.4,362.38,361.02,361.29,360.17,339.21,0.1575,21250,3,0.98
63,361.71,360.51,360.45,361.32,360.42,362.36,360.99,361.32,360.12,339.31,0.1575,21250,3,0.98
64,361.82,360.56,360.43,361.32,360.43,362.33,360.9,361.41,360.07,339.4,0.1575,21250,3,0.98
65,361.93,360.64,360.39,361.32,360.43,362.31,360.69,361.45,360.03,339.55,0.1575,21250,3,0.98
66,361.98,360.69,360.39,361.31,360.41,362.27,360.36,361.38,360.01,339.74,0.1575,21250,3,0.98
67,361.97,360.67,360.4,361.28,360.42,362.25,360.21,361.3,360.0,339.87,0.1575,21250,3,0.98
68,361.93,360.66,360.39,361.24,360.42,362.21,360.16,361.29,359.96,340.0,0.1575,21250,3,0.98
69,361.9,360.65,360.37,361.2,360.43,362.19,360.16,361.3,359.93,340.13,0.1575,21250,3,0.98
70,361.89,360.66,360.34,361.13,360.41,362.15,360.16,361.34,359.89,340.24,0.1575,21250,3,0.98
71,361.86,360.72,360.34,361.06,360.41,362.11,360.19,361.35,359.86,340.38,0.1575,21250,3,0.98
72,361.87,360.77,360.33,360.96,360.4,362.08,360.25,361.36,359.87,340.5,0.1575,21250,3,0.98
73,361.84,360.81,360.32,360.87,360.38,362.04,360.35,361.33,359.9,340.61,0.1575,21250,3,0.98
74,361.83,360.79,360.31,360.82,360.34,362.02,360.52,361.31,360.0,340.76,0.1575,21250,3,0.98
75,361.75,360.64,360.27,360.76,360.3,362.02,360.67,361.31,360.09,340.86,0.1575,21250,3,0.98
76,361.65,360.54,360.24,360.73,360.27,362.01,360.75,361.33,360.1,340.92,0.1575,21250,3,0.98
77,361.54,360.43,360.21,360.72,360.24,361.99,360.81,361.34,360.1,341.0,0.1575,21250,3,0.98
78,361.43,360.34,360.17,360.68,360.21,361.97,360.84,361.36,360.09,341.09,0.1575,21250,3,0.98
79,361.32,360.25,360.14,360.68,360.17,361.95,360.87,361.38,360.1,341.18,0.1575,21250,3,0.98
80,361.21,360.2,360.12,360.65,360.13,361.94,360.91,361.42,360.14,341.3,0.1575,21250,3,0.98
81,361.12,360.19,360.1,360.65,360.13,361.93,360.91,361.49,360.2,341.45,0.1575,21250,3,0.98
82,361.02,360.15,360.12,360.65,360.12,361.91,360.9,361.57,360.3,341.61,0.1575,21250,3,0.98
83,360.86,360.1,360.14,360.61,360.13,361.89,360.83,361.59,360.39,341.8,0.1575,21250,3,0.98
84,360.74,360.01,360.14,360.58,360.14,361.86,360.76,361.56,360.46,341.92,0.1575,21250,3,0.98
85,360.69,359.92,360.15,360.55,360.14,361.83,360.72,361.46,360.49,341.98,0.1575,21250,3,0.98
86,360.64,359.83,360.14,360.53,360.15,361.82,360.72,361.37,360.53,342.05,0.1575,21250,3,0.98
87,360.62,359.74,360.14,360.51,360.16,361.81,360.74,361.3,360.54,342.13,0.1575,21250,3,0.98
88,360.61,359.68,360.12,360.49,360.18,361.83,360.76,361.31,360.56,342.22,0.1575,21250,3,0.98
89,360.62,359.62,360.11,360.47,360.19,361.86,360.78,361.36,360.54,342.27,0.1575,21250,3,0.98
90,360.63,359.58,360.08,360.46,360.2,361.89,360.81,361.4,360.49,342.35,0.1575,21250,3,0.98
91,360.63,359.55,360.05,360.44,360.21,361.92,360.86,361.44,360.43,342.42,0.1575,21250,3,0.98
92,360.58,359.49,360.0,360.4,360.19,361.93,360.9,361.44,360.33,342.56,0.1575,21250,3,0.98
93,360.58,359.45,359.96,360.37,360.16,361.94,360.85,361.47,360.29,342.71,0.1575,21250,3,0.98
94,360.53,359.45,359.95,360.34,360.15,361.94,360.79,361.44,360.29,342.8,0.1575,21250,3,0.98
95,360.45,359.4,359.94,360.32,360.13,361.94,360.7,361.35,360.31,342.91,0.1575,21250,3,0.98
96,360.41,359.36,359.93,360.3,360.11,361.95,360.62,361.28,360.33,343.01,0.1575,21250,3,0.98
97,360.34,359.34,359.92,360.3,360.1,361.94,360.57,361.25,360.34,343.1,0.1575,21250,3,0.98
98,360.31,359.32,359.89,360.31,360.08,361.91,360.49,361.25,360.29,343.19,0.1575,21250,3,0.98
99,360.28,359.31,359.84,360.33,360.06,361.87,360.39,361.24,360.25,343.26,0.1575,21250,3,0.98
100,360.26,359.32,359.81,360.37,360.05,361.84,360.26,361.24,360.23,343.31,0.1575,21250,3,0.98
101,360.22,359.3,359.77,360.4,360.03,361.85,360.12,361.23,360.2,343.36,0.1575,21250,3,0.98
102,360.19,359.27,359.74,360.41,360.02,361.84,360.04,361.14,360.1,343.37,0.1575,21250,3,0.98
103,360.17,359.23,359.74,360.39,360.01,361.84,360.05,361.04,360.03,343.37,0.1575,21250,3,0.98
104,360.12,359.16,359.74,360.38,359.98,361.84,360.12,360.98,359.92,343.42,0.1575,21250,3,0.98
105,360.06,359.11,359.75,360.38,359.96,361.83,360.24,360.96,359.77,343.47,0.1575,21250,3,0.98
106,360.02,359.09,359.76,360.39,359.94,361.81,360.36,360.96,359.7,343.52,0.1575,21250,3,0.98
107,359.99,359.08,359.76,360.42,359.93,361.77,360.49,361.02,359.59,343.53,0.1575,21250,3,0.98
108,359.99,359.05,359.75,360.43,359.92,361.73,360.59,361.1,359.55,343.56,0.1575,21250,3,0.98
109,359.97,359.02,359.74,360.43,359.91,361.71,360.67,361.14,359.56,343.57,0.1575,21250,3,0.98
110,359.9,359.0,359.7,360.41,359.9,361.69,360.73,361.16,359.61,343.6,0.1575,21250,3,0.98
111,359.86,358.99,359.66,360.39,359.88,361.68,360.76,361.12,359.71,343.64,0.1575,21250,3,0.98
112,359.86,358.98,359.65,360.36,359.87,361.68,360.8,361.08,359.78,343.64,0.1575,21250,3,0.98
113,359.86,358.98,359.62,360.34,359.83,361.68,360.83,361.04,359.86,343.66,0.1575,21250,3,0.98
114,359.89,358.96,359.6,360.31,359.81,361.64,360.88,361.01,359.92,343.7,0.1575,21250,3,0.98
115,359.9,358.95,359.59,360.29,359.78,361.62,360.9,361.04,359.98,343.74,0.1575,21250,3,0.98
116,359.89,358.97,359.57,360.28,359.74,361.6,360.9,361.07,360.06,343.78,0.1575,21250,3,0.98
117,359.88,359.0,359.54,360.27,359.7,361.58,360.86,361.05,360.15,343.82,0.1575,21250,3,0.98
118,359.88,359.03,359.52,360.26,359.68,361.56,360.82,361.01,360.26,343.88,0.1575,21250,3,0.98
119,359.9,359.06,359.51,360.26,359.67,361.56,360.75,360.95,360.37,343.97,0.1575,21250,3,0.98
120,359.93,359.11,359.52,360.27,359.68,361.57,360.71,360.92,360.46,344.09,0.1575,21250,3,0.98
121,359.97,359.15,359.53,360.28,359.71,361.57,360.69,360.92,360.49,344.17,0.1575,21250,3,0.98
122,360.01,359.19,359.55,360.29,359.73,361.59,360.65,360.93,360.52,344.23,0.1575,21250,3,0.98
123,360.05,359.23,359.58,360.3,359.76,361.64,360.63,360.92,360.55,344.28,0.1575,21250,3,0.98
124,360.05,359.26,359.6,360.32,359.8,361.67,360.62,360.88,360.59,344.35,0.1575,21250,3,0.98
125,360.05,359.25,359.62,360.31,359.81,361.69,360.62,360.85,360.62,344.39,0.1575,21250,3,0.98
126,360.04,359.23,359.65,360.31,359.84,361.72,360.64,360.83,360.64,344.41,0.1575,21250,3,0.98
127,359.95,359.21,359.69,360.3,359.86,361.73,360.69,360.84,360.66,344.47,0.1575,21250,3,0.98
128,359.87,359.17,359.74,360.3,359.86,361.73,360.77,360.88,360.63,344.57,0.1575,21250,3,0.98
129,359.85,359.1,359.76,360.31,359.86,361.72,360.77,360.94,360.61,344.68,0.1575,21250,3,0.98
130,359.85,359.03,359.78,360.33,359.85,361.72,360.83,361.06,360.59,344.81,0.1575,21250,3,0.98
131,359.88,358.96,359.82,360.34,359.84,361.73,360.87,361.18,360.58,344.99,0.1575,21250,3,0.98
132,359.92,358.9,359.84,360.35,359.84,361.73,360.87,361.25,360.58,345.15,0.1575,21250,3,0.98
133,359.96,358.84,359.85,360.37,359.85,361.73,360.87,361.37,360.59,345.31,0.1575,21250,3,0.98
134,360.0,358.77,359.86,360.38,359.87,361.73,360.86,361.43,360.59,345.43,0.1575,21250,3,0.98
135,360.03,358.73,359.84,360.39,359.89,361.74,360.8,361.42,360.57,345.53,0.1575,21250,3,0.98
136,360.04,358.71,359.82,360.39,359.91,361.75,360.83,361.4,360.59,345.62,0.1575,21250,3,0.98
137,360.0,358.7,359.8,360.39,359.93,361.78,360.93,361.39,360.6,345.68,0.1575,21250,3,0.98
138,359.94,358.69,359.79,360.43,359.93,361.8,360.96,361.37,360.61,345.69,0.1575,21250,3,0.98
139,359.87,358.66,359.75,360.44,359.93,361.81,360.98,361.35,360.63,345.68,0.1575,21250,3,0.98
140,359.81,358.65,359.72,360.46,359.93,361.83,360.97,361.35,360.62,345.64,0.1575,21250,3,0.98
141,359.75,358.64,359.69,360.47,359.94,361.83,360.96,361.43,360.58,345.57,0.1575,21250,3,0.98
142,359.73,358.58,359.67,360.46,359.94,361.82,360.95,361.5,360.5,345.52,0.1575,21250,3,0.98
143,359.74,358.52,359.65,360.43,359.95,361.81,360.96,361.57,360.39,345.46,0.1575,21250,3,0.98
144,359.76,358.48,359.63,360.44,359.94,361.8,360.98,361.6,360.3,345.41,0.1575,21250,3,0.98
145,359.75,358.45,359.61,360.46,359.94,361.81,360.94,361.59,360.1,345.36,0.1575,21250,3,0.98
146,359.7,358.41,359.57,360.44,359.92,361.81,360.82,361.55,359.94,345.32,0.1575,21250,3,0.98
147,359.66,358.39,359.54,360.44,359.92,361.81,360.77,361.46,359.89,345.31,0.1575,21250,3,0.98
148,359.6,358.4,359.53,360.41,359.92,361.79,360.77,361.39,359.88,345.31,0.1575,21250,3,0.98
149,359.53,358.43,359.53,360.38,359.91,361.78,360.83,361.37,359.85,345.28,0.1575,21250,3,0.98
150,359.48,358.43,359.52,360.36,359.9,361.76,360.9,361.38,359.75,345.28,0.1575,21250,3,0.98
151,359.43,358.43,359.52,360.33,359.88,361.74,360.94,361.41,359.64,345.27,0.1575,21250,3,0.98
152,359.42,358.43,359.52,360.32,359.85,361.73,360.98,361.48,359.57,345.26,0.1575,21250,3,0.98
153,359.43,358.44,359.51,360.31,359.83,361.73,361.01,361.51,359.55,345.25,0.1575,21250,3,0.98
154,359.42,358.46,359.5,360.29,359.81,361.71,361.03,361.55,359.53,345.25,0.1575,21250,3,0.98
155,359.37,358.5,359.46,360.29,359.76,361.7,361.06,361.56,359.52,345.24,0.1575,21250,3,0.98
156,359.36,358.52,359.42,360.28,359.71,361.68,361.09,361.54,359.49,345.25,0.1575,21250,3,0.98
157,359.37,358.51,359.4,360.26,359.68,361.67,361.11,361.45,359.48,345.26,0.1575,21250,3,0.98
158,359.39,358.51,359.39,360.25,359.67,361.66,361.12,361.38,359.49,345.26,0.1575,21250,3,0.98
159,359.38,358.51,359.4,360.22,359.67,361.65,361.14,361.36,359.53,345.29,0.1575,21250,3,0.98
160,359.39,358.51,359.4,360.21,359.66,361.65,361.14,361.38,359.61,345.32,0.1575,21250,3,0.98
161,359.41,358.52,359.42,360.18,359.68,361.64,361.13,361.41,359.71,345.34,0.1575,21250,3,0.98
162,359.44,358.49,359.43,360.15,359.68,361.65,361.12,361.41,359.79,345.4,0.1575,21250,3,0.98
163,359.48,358.46,359.46,360.13,359.7,361.66,361.11,361.38,359.87,345.46,0.1575,21250,3,0.98
164,359.48,358.37,359.51,360.1,359.72,361.66,361.07,361.35,360.0,345.52,0.1575,21250,3,0.98
165,359.45,358.35,359.57,360.08,359.75,361.68,361.03,361.34,360.2,345.59,0.1575,21250,3,0.98
166,359.46,358.34,359.61,360.08,359.77,361.68,361.0,361.31,360.33,345.64,0.1575,21250,3,0.98
167,359.46,358.32,359.64,360.09,359.79,361.68,361.01,361.3,360.42,345.7,0.1575,21250,3,0.98
168,359.47,358.32,359.68,360.12,359.8,361.68,360.99,361.28,360.42,345.74,0.1575,21250,3,0.98
169,359.48,358.31,359.71,360.16,359.81,361.67,360.95,361.27,360.37,345.77,0.1575,21250,3,0.98
170,359.53,358.32,359.71,360.18,359.83,361.65,360.91,361.2,360.3,345.82,0.1575,21250,3,0.98
171,359.6,358.36,359.72,360.19,359.85,361.62,360.89,361.1,360.17,345.84,0.1575,21250,3,0.98
172,359.67,358.37,359.72,360.16,359.86,361.6,360.87,361.12,360.04,345.86,0.1575,21250,3,0.98
173,359.78,358.35,359.73,360.12,359.87,361.57,360.82,361.14,359.89,345.89,0.1575,21250,3,0.98
174,359.89,358.27,359.74,360.11,359.85,361.57,360.82,361.15,359.75,345.91,0.1575,21250,3,0.98
175,359.94,358.18,359.76,360.1,359.84,361.59,360.82,361.16,359.7,345.92,0.1575,21250,3,0.98
176,359.96,358.08,359.75,360.09,359.81,361.61,360.83,361.17,359.65,345.92,0.1575,21250,3,0.98
177,359.95,358.0,359.74,360.06,359.79,361.62,360.79,361.17,359.61,345.94,0.1575,21250,3,0.98
178,359.93,357.96,359.72,360.02,359.74,361.63,360.68,361.19,359.53,345.94,0.1575,21250,3,0.98
179,359.95,357.95,359.72,359.98,359.69,361.63,360.61,361.25,359.44,345.96,0.1575,21250,3,0.98
180,359.99,357.98,359.7,359.94,359.65,361.61,360.6,361.29,359.35,345.96,0.1575,21250,3,0.98
181,360.06,357.98,359.69,359.94,359.62,361.6,360.62,361.31,359.31,345.97,0.1575,21250,3,0.98
182,360.1,357.99,359.67,359.94,359.58,361.56,360.65,361.26,359.19,345.97,0.1575,21250,3,0.98
183,360.13,357.99,359.64,359.97,359.59,361.52,360.65,361.17,359.23,345.96,0.1575,21250,3,0.98
184,360.16,357.98,359.62,360.01,359.61,361.48,360.67,361.1,359.32,345.96,0.1575,21250,3,0.98
185,360.2,358.0,359.58,360.05,359.62,361.46,360.7,361.04,359.38,345.95,0.1575,21250,3,0.98
186,360.23,358.04,359.54,360.08,359.64,361.46,360.73,361.0,359.38,345.95,0.1575,21250,3,0.98
187,360.16,358.04,359.49,360.11,359.65,361.48,360.77,360.97,359.34,345.94,0.1575,21250,3,0.98
188,360.06,358.01,359.46,360.12,359.65,361.49,360.8,360.94,359.27,345.93,0.1575,21250,3,0.98
189,359.98,357.98,359.42,360.14,359.64,361.5,360.84,360.84,359.25,345.93,0.1575,21250,3,0.98
190,359.91,357.97,359.39,360.16,359.64,361.52,360.86,360.78,359.25,345.92,0.1575,21250,3,0.98
191,359.82,357.91,359.35,360.15,359.64,361.51,360.93,360.85,359.31,345.94,0.1575,21250,3,0.98
192,359.7,357.87,359.33,360.15,359.63,361.51,360.99,360.99,359.41,345.96,0.1575,21250,3,0.98
193,359.62,357.82,359.33,360.15,359.62,361.49,361.02,361.13,359.49,345.97,0.1575,21250,3,0.98
194,359.59,357.81,359.33,360.15,359.62,361.46,361.04,361.24,359.57,345.97,0.1575,21250,3,0.98
195,359.58,357.81,359.34,360.16,359.62,361.44,361.06,361.31,359.61,345.98,0.1575,21250,3,0.98
196,359.57,357.83,359.34,360.15,359.63,361.41,361.07,361.42,359.62,345.98,0.1575,21250,3,0.98
197,359.59,357.85,359.35,360.16,359.66,361.39,361.1,361.47,359.59,345.98,0.1575,21250,3,0.98
198,359.66,357.85,359.35,360.16,359.68,361.37,361.1,361.47,359.57,345.97,0.1575,21250,3,0.98
199,359.69,357.85,359.36,360.17,359.69,361.37,361.11,361.46,359.53,345.97,0.1575,21250,3,0.98
200,359.7,357.85,359.35,360.15,359.71,361.37,361.05,361.46,359.58,345.99,0.1575,21250,3,0.98
201,359.72,357.88,359.33,360.12,359.74,361.37,361.0,361.45,359.71,346.05,0.1575,21250,3,0.98
202,359.73,357.87,359.31,360.1,359.75,361.35,360.98,361.43,359.81,346.06,0.1575,21250,3,0.98
203,359.69,357.86,359.3,360.07,359.75,361.33,360.95,361.4,359.92,346.07,0.1575,21250,3,0.98
204,359.63,357.83,359.3,360.02,359.74,361.3,360.92,361.39,360.01,346.07,0.1575,21250,3,0.98
205,359.57,357.8,359.29,359.99,359.74,361.29,360.91,361.4,360.08,346.08,0.1575,21250,3,0.98
206,359.49,357.77,359.3,359.96,359.72,361.27,360.91,361.4,360.09,346.09,0.1575,21250,3,0.98
207,359.42,357.76,359.3,359.96,359.7,361.25,360.9,361.35,360.11,346.14,0.1575,21250,3,0.98
208,359.37,357.76,359.3,359.97,359.67,361.24,360.87,361.26,360.12,346.19,0.1575,21250,3,0.98
209,359.41,357.8,359.31,359.98,359.63,361.22,360.82,361.16,360.19,346.3,0.1575,21250,3,0.98
210,359.46,357.85,359.33,360.01,359.6,361.22,360.77,361.05,360.26,346.4,0.1575,21250,3,0.98
211,359.49,357.9,359.34,360.03,359.59,361.21,360.74,360.94,360.29,346.42,0.1575,21250,3,0.98
212,359.48,357.94,359.38,360.05,359.59,361.23,360.72,360.82,360.28,346.41,0.1575,21250,3,0.98
213,359.45,357.97,359.39,360.08,359.6,361.25,360.73,360.76,360.22,346.41,0.1575,21250,3,0.98
214,359.45,357.98,359.42,360.09,359.61,361.27,360.74,360.78,360.13,346.4,0.1575,21250,3,0.98
