Time,TC1_tip,TC2,TC3,TC4,TC5,TC6,TC7,TC8,TC9,TC10,h,flux,abs,surf
1,288.631796283445,300.019359041152,300.013871391491,300.009939297226,300.007121816656,300.005102997561,300.003677309904,300.003677309904,300.003677309904,301.839086596967,0.2,5000.0,15.0,0.5
2,288.643607035018,300.017023021978,300.027743303392,300.019878984494,300.014243928706,300.010206212943,300.007367617692,300.007367617692,300.007367617692,301.842776904756,0.2,5000.0,15.0,0.5
3,288.652806142268,300.015603427412,300.041615372881,300.029819068383,300.021366334083,300.015309649993,300.011067568504,300.011067568504,300.011067568504,301.846476855567,0.2,5000.0,15.0,0.5
4,288.659799289298,300.018239570532,300.04468345,300.039759638217,300.02848905656,300.020413306563,300.014775576596,300.014775576596,300.014775576596,301.850184863659,0.2,5000.0,15.0,0.5
5,288.666175329291,300.021914443564,300.04495145391,300.049700627498,300.035612097818,300.025517186717,300.018490581865,300.018490581865,300.018490581865,301.853899868928,0.2,5000.0,15.0,0.5
6,288.671808830662,300.026000412645,300.046953249398,300.059641878809,300.042735433057,300.030621263877,300.02221190324,300.02221190324,300.02221190324,301.857621190303,0.2,5000.0,15.0,0.5
7,288.676686820597,300.030239495297,300.050161340724,300.069193988143,300.049859105522,300.035725633701,300.025939031778,300.025939031778,300.025939031778,301.861348318841,0.2,5000.0,15.0,0.5
8,288.681837791859,300.034529095952,300.053156209117,300.071783322282,300.056983100917,300.040830162363,300.029671473929,300.029671473929,300.029671473929,301.865080760992,0.2,5000.0,15.0,0.5
9,288.686657791176,300.038839155594,300.056581465378,300.074323775162,300.064107432345,300.045934965244,300.033408950916,300.033408950916,300.033408950916,301.868818237979,0.2,5000.0,15.0,0.5
10,288.691628400532,300.043150883479,300.059833959331,300.076517035183,300.07123201991,300.051040003339,300.037151142195,300.037151142195,300.037151142195,301.872560429259,0.2,5000.0,15.0,0.5
11,288.69577997128,300.047450930394,300.064020445825,300.080589961256,300.078356998791,300.056145226641,300.040897914576,300.040897914576,300.040897914576,301.87630720164,0.2,5000.0,15.0,0.5
12,288.700503654634,300.051738796035,300.067511728422,300.083284660809,300.085482064636,300.061250710282,300.044648924144,300.044648924144,300.044648924144,301.880058211207,0.2,5000.0,15.0,0.5
13,288.704856944057,300.056013042263,300.071407851447,300.08680266063,300.092602061745,300.066356428873,300.048404094515,300.048404094515,300.048404094515,301.883813381579,0.2,5000.0,15.0,0.5
14,288.709279735362,300.06026975486,300.075185745942,300.090101737024,300.099646580071,300.07146234206,300.052163223811,300.052163223811,300.052163223811,301.887572510874,0.2,5000.0,15.0,0.5
15,288.713335905196,300.064523685887,300.079386863602,300.094250041316,300.106443032252,300.076568515537,300.055926223666,300.055926223666,300.055926223666,301.891335510729,0.2,5000.0,15.0,0.5
16,288.717446985232,300.068764594443,300.08349631967,300.098228044898,300.112462354882,300.081674899394,300.059692922678,300.059692922678,300.059692922678,301.895102209741,0.2,5000.0,15.0,0.5
17,288.721604665947,300.07299103831,300.087520805534,300.102050572757,300.11658033998,300.086781524059,300.06346320938,300.06346320938,300.06346320938,301.898872496443,0.2,5000.0,15.0,0.5
18,288.725801306319,300.077201601735,300.091466285865,300.105730969996,300.119995654127,300.09188836681,300.067236982311,300.067236982311,300.067236982311,301.902646269374,0.2,5000.0,15.0,0.5
19,288.730029878629,300.081394905308,300.095338084019,300.10928126273,300.123224441441,300.096995440885,300.0710141486,300.0710141486,300.0710141486,301.906423435663,0.2,5000.0,15.0,0.5
20,288.734283918466,300.085569613597,300.099140956591,300.112712299585,300.126283642579,300.102102737447,300.074794622825,300.074794622825,300.074794622825,301.910203909889,0.2,5000.0,15.0,0.5
21,288.738166430828,300.089776886259,300.103447145571,300.117117404882,300.130787664193,300.107210274465,300.078578373976,300.078578373976,300.078578373976,301.913987661039,0.2,5000.0,15.0,0.5
22,288.74246248527,300.093918620101,300.107131475912,300.120344331723,300.133557187534,300.112318031327,300.082365232863,300.082365232863,300.082365232863,301.917774519926,0.2,5000.0,15.0,0.5
23,288.746378858349,300.098105200777,300.111354502149,300.12460380352,300.137853104891,300.117425982574,300.086155227924,300.086155227924,300.086155227924,301.921564514987,0.2,5000.0,15.0,0.5
24,288.750313964232,300.102282651781,300.115536396098,300.128790140416,300.142043884734,300.12253422885,300.089948246248,300.089948246248,300.089948246248,301.925357533311,0.2,5000.0,15.0,0.5
25,288.754266232942,300.106450704112,300.119678429364,300.132906154615,300.146133879867,300.127642614993,300.093744227992,300.093744227992,300.093744227992,301.929153515055,0.2,5000.0,15.0,0.5
26,288.758234144669,300.110609094016,300.123781825873,300.136954557729,300.150127289586,300.132751263377,300.097543116946,300.097543116946,300.097543116946,301.932952404009,0.2,5000.0,15.0,0.5
27,288.762216258931,300.114757557311,300.127847715809,300.140937874306,300.154028032804,300.137860010048,300.101344860181,300.101344860181,300.101344860181,301.936754147245,0.2,5000.0,15.0,0.5
28,288.766211181617,300.118895835476,300.131877187,300.144858538525,300.15783989005,300.142968742932,300.105149407744,300.105149407744,300.105149407744,301.940558694807,0.2,5000.0,15.0,0.5
29,288.770217572499,300.123023674294,300.135871273267,300.148718872239,300.161566471212,300.148077164561,300.108956712387,300.108956712387,300.108956712387,301.94436599945,0.2,5000.0,15.0,0.5
30,288.774234143147,300.127140824166,300.139830957517,300.152521090868,300.165211224219,300.153184676655,300.112766729332,300.112766729332,300.112766729332,301.948176016396,0.2,5000.0,15.0,0.5
31,288.778259654939,300.131247040372,300.143757174637,300.156267308902,300.168777443167,300.158290199738,300.116579416067,300.116579416067,300.116579416067,301.95198870313,0.2,5000.0,15.0,0.5
32,288.782292917143,300.1353420833,300.147650814205,300.15995954511,300.172268276015,300.163391578678,300.120394732156,300.120394732156,300.120394732156,301.955804019219,0.2,5000.0,15.0,0.5
33,288.786332785106,300.139425718637,300.151512723018,300.163599727398,300.175686731779,300.168485227658,300.124212639081,300.124212639081,300.124212639081,301.959621926144,0.2,5000.0,15.0,0.5
34,288.79000899966,300.143628154562,300.156050132303,300.168472110044,300.180894087786,300.173590437866,300.128033147282,300.128033147282,300.128033147282,301.963442434345,0.2,5000.0,15.0,0.5
35,288.794065073173,300.147695448896,300.159858694053,300.172021939209,300.184185184366,300.178666904188,300.131856126867,300.131856126867,300.131856126867,301.96726541393,0.2,5000.0,15.0,0.5
36,288.798125083884,300.151750805557,300.163637533256,300.175524260955,300.187410988653,300.18371819415,300.135681591789,300.135681591789,300.135681591789,301.971090878852,0.2,5000.0,15.0,0.5
37,288.801822394607,300.155942741746,300.168128155192,300.180313568637,300.192498982083,300.188813499796,300.139509556866,300.139509556866,300.139509556866,301.974918843929,0.2,5000.0,15.0,0.5
38,288.805895026337,300.159981094147,300.171856447455,300.183731800763,300.19560715407,300.193815883173,300.14333989674,300.14333989674,300.14333989674,301.978749183803,0.2,5000.0,15.0,0.5
39,288.809602208503,300.16416719353,300.176323231199,300.188479268869,300.200635306538,300.198901132752,300.147172676338,300.147172676338,300.147172676338,301.982581963401,0.2,5000.0,15.0,0.5
40,288.813685502456,300.168188193886,300.180002537514,300.191816881141,300.203631224769,300.20382488967,300.151007772419,300.151007772419,300.151007772419,301.986417059482,0.2,5000.0,15.0,0.5
41,288.817402015246,300.172368424529,300.184446048881,300.196523673234,300.208601297586,300.208895453738,300.154845252314,300.154845252314,300.154845252314,301.990254539377,0.2,5000.0,15.0,0.5
42,288.821494102874,300.176371727552,300.188077829871,300.19978393219,300.21149003451,300.213699626421,300.158684994788,300.158684994788,300.158684994788,301.994094281851,0.2,5000.0,15.0,0.5
43,288.825219436205,300.180546048872,300.192498580504,300.204451112136,300.216403643768,300.218749928352,300.162527069137,300.162527069137,300.162527069137,301.9979363562,0.2,5000.0,15.0,0.5
44,288.829318527019,300.184531315234,300.19608421798,300.207637120727,300.219190023473,300.223380257652,300.166371356045,300.166371356045,300.166371356045,302.001780643108,0.2,5000.0,15.0,0.5
45,288.833052186421,300.188699684227,300.200482696157,300.212265708086,300.224048720016,300.228403521632,300.170217926403,300.170217926403,300.170217926403,302.005627213467,0.2,5000.0,15.0,0.5
46,288.836785961277,300.192867142466,300.204879119801,300.216891097136,300.228903074471,300.233423889263,300.1740667102,300.1740667102,300.1740667102,302.009475997263,0.2,5000.0,15.0,0.5
47,288.840898069796,300.196828953306,300.208400172549,300.219971391792,300.231542611034,300.237780857148,300.177917637193,300.177917637193,300.177917637193,302.013326924256,0.2,5000.0,15.0,0.5
48,288.844639671177,300.200990433287,300.21277485388,300.224559274474,300.236343695067,300.242766062289,300.181770781408,300.181770781408,300.181770781408,302.017180068471,0.2,5000.0,15.0,0.5
49,288.848754975594,300.204933484769,300.21625269899,300.227571913211,300.238891127432,300.246789597809,300.185626026485,300.185626026485,300.185626026485,302.021035313548,0.2,5000.0,15.0,0.5
50,288.85250393941,300.209088938687,300.22060608064,300.232123222593,300.243640364546,300.251732106548,300.189483447744,300.189483447744,300.189483447744,302.024892734807,0.2,5000.0,15.0,0.5
51,288.856252977984,300.213243524942,300.224957546047,300.236671567152,300.248385588257,300.256670880671,300.193342978146,300.193342978146,300.193342978146,302.028752265209,0.2,5000.0,15.0,0.5
52,288.860376751136,300.217162292963,300.228374389027,300.239586485091,300.250798581154,300.260215534783,300.197204549392,300.197204549392,300.197204549392,302.032613836455,0.2,5000.0,15.0,0.5
53,288.864132683714,300.221310820462,300.232705034259,300.244099248057,300.255493461854,300.265102493173,300.201068240801,300.201068240801,300.201068240801,302.036477527865,0.2,5000.0,15.0,0.5
54,288.867888671566,300.225458502192,300.237033832116,300.248609162041,300.260184491965,300.269984745711,300.204933985915,300.204933985915,300.204933985915,302.040343272978,0.2,5000.0,15.0,0.5
55,288.871644713444,300.229605343693,300.241360795712,300.253116247732,300.264871699751,300.274862978483,300.208801767297,300.208801767297,300.208801767297,302.04421105436,0.2,5000.0,15.0,0.5
56,288.875780055255,300.233494799053,300.244702426297,300.25591005354,300.267117680784,300.266953057051,300.212671513897,300.212671513897,300.212671513897,302.04808080096,0.2,5000.0,15.0,0.5
57,288.879537300354,300.237639226593,300.249022896864,300.260406567135,300.271790237407,300.277681643038,300.2165433165,300.2165433165,300.2165433165,302.051952603563,0.2,5000.0,15.0,0.5
58,288.883294420326,300.241782946791,300.253342022381,300.264901097971,300.276460173561,300.287446078705,300.220417105671,300.220417105671,300.220417105671,302.055826392734,0.2,5000.0,15.0,0.5
59,288.887051414802,300.245925964147,300.257659812743,300.269393661339,300.281127509935,300.292289263192,300.224292865726,300.224292865726,300.224292865726,302.059702152789,0.2,5000.0,15.0,0.5
60,288.891192652435,300.249788566643,300.260938044582,300.272087522521,300.28323700046,300.294386478399,300.228170513283,300.228170513283,300.228170513283,302.063579800346,0.2,5000.0,15.0,0.5
61,288.894955624939,300.253925778759,300.265236620162,300.276547461566,300.28785830297,300.299169144374,300.23205016589,300.23205016589,300.23205016589,302.067459452953,0.2,5000.0,15.0,0.5
62,288.89871846611,300.258062306478,300.269533906231,300.281005505983,300.292477105736,300.303948705489,300.235931744172,300.235931744172,300.235931744172,302.071341031236,0.2,5000.0,15.0,0.5
63,288.902481176458,300.262198153202,300.273829909347,300.285461665492,300.297093421638,300.308725177783,300.239815233874,300.239815233874,300.239815233874,302.075224520937,0.2,5000.0,15.0,0.5
64,288.906629856806,300.266030572535,300.277035926961,300.288041281387,300.299046635814,300.31005199024,300.243700516177,300.243700516177,300.243700516177,302.07910980324,0.2,5000.0,15.0,0.5
65,288.910398156604,300.270160592654,300.281313125184,300.292465657715,300.303618190245,300.314770722776,300.247587778672,300.247587778672,300.247587778672,302.082997065735,0.2,5000.0,15.0,0.5
66,288.914166318909,300.274289949591,300.285589085744,300.296888221897,300.30818735805,300.319486494203,300.251476910772,300.251476910772,300.251476910772,302.086886197835,0.2,5000.0,15.0,0.5
67,288.917934343462,300.278418646972,300.28986381657,300.301308986167,300.312754155765,300.324199325362,300.255367899365,300.255367899365,300.255367899365,302.090777186428,0.2,5000.0,15.0,0.5
68,288.921702230009,300.282546688343,300.294137325418,300.305727962493,300.317318599568,300.328909236643,300.259260731608,300.259260731608,300.259260731608,302.094670018671,0.2,5000.0,15.0,0.5
69,288.925861003737,300.286343254679,300.297256096986,300.308168939293,300.3190817816,300.329994623906,300.26315518132,300.26315518132,300.26315518132,302.098564468383,0.2,5000.0,15.0,0.5
70,288.929634097294,300.290465458057,300.301511224646,300.312556991234,300.323602757822,300.33464852441,300.267051642694,300.267051642694,300.267051642694,302.102460929757,0.2,5000.0,15.0,0.5
71,288.933407047508,300.294587021037,300.305765169425,300.316943317813,300.328121466201,300.339299614589,300.270949908741,300.270949908741,300.270949908741,302.106359195804,0.2,5000.0,15.0,0.5
72,288.937179854164,300.298707946856,300.310017938387,300.321327929919,300.33263792145,300.343947912982,300.274849967461,300.274849967461,300.274849967461,302.110259254524,0.2,5000.0,15.0,0.5
73,288.94095251705,300.302828238687,300.314269538457,300.325710838228,300.337152137998,300.348593437768,300.278751807065,300.278751807065,300.278751807065,302.114161094128,0.2,5000.0,15.0,0.5
74,288.945118066081,300.306588419412,300.317303827313,300.328019235213,300.338734643114,300.349450051014,300.282654937213,300.282654937213,300.282654937213,302.118064224276,0.2,5000.0,15.0,0.5
75,288.948895550021,300.310702873799,300.321537499121,300.332372124442,300.343206749764,300.354041375086,300.286560258256,300.286560258256,300.286560258256,302.121969545319,0.2,5000.0,15.0,0.5
76,288.952672884006,300.314816709856,300.32577004222,300.336723374584,300.347676706949,300.358630039313,300.290467322313,300.290467322313,300.290467322313,302.125876609376,0.2,5000.0,15.0,0.5
77,288.956450067804,300.318929930566,300.33000146316,300.341072995754,300.352144528348,300.363216060942,300.294376118163,300.294376118163,300.294376118163,302.129785405226,0.2,5000.0,15.0,0.5
78,288.960227101184,300.323042538864,300.334231768386,300.345420997907,300.356610227429,300.36779945695,300.298286634753,300.298286634753,300.298286634753,302.133695921816,0.2,5000.0,15.0,0.5
79,288.964003983919,300.327154537638,300.338460964238,300.349767390838,300.361073817438,300.372380244038,300.302198861194,300.302198861194,300.302198861194,302.137608148257,0.2,5000.0,15.0,0.5
80,288.967780715782,300.331265929727,300.342689056958,300.354112184188,300.365535311419,300.376958438649,300.306112786751,300.306112786751,300.306112786751,302.141522073814,0.2,5000.0,15.0,0.5
81,288.971959110861,300.334978730633,300.345608625759,300.356238520884,300.366868416009,300.377498311134,300.310027139298,300.310027139298,300.310027139298,302.145436426362,0.2,5000.0,15.0,0.5
82,288.975740308739,300.33908428236,300.349819199686,300.360554117012,300.371289034338,300.382023951664,300.31394432469,300.31394432469,300.31394432469,302.149353611753,0.2,5000.0,15.0,0.5
83,288.979521351008,300.343189241203,300.354028705064,300.364868168926,300.375707632788,300.386547096649,300.317863170797,300.317863170797,300.317863170797,302.15327245786,0.2,5000.0,15.0,0.5
84,288.983302237465,300.347293609844,300.358237147775,300.369180685706,300.380124223637,300.391067761569,300.321783667143,300.321783667143,300.321783667143,302.157192954206,0.2,5000.0,15.0,0.5
85,288.987082967909,300.35139739093,300.362444533621,300.373491676311,300.384538819002,300.395585961693,300.325705803372,300.325705803372,300.325705803372,302.161115090436,0.2,5000.0,15.0,0.5
86,288.99086354214,300.355500587071,300.366650868326,300.377801149582,300.388951430837,300.400101712092,300.329629569248,300.329629569248,300.329629569248,302.165038856311,0.2,5000.0,15.0,0.5
87,288.994643959963,300.359603200843,300.370856157543,300.382109114243,300.393362070944,300.404615027644,300.333554954646,300.333554954646,300.333554954646,302.168964241709,0.2,5000.0,15.0,0.5
88,288.998424221181,300.363705234789,300.375060406851,300.386415578913,300.397770750975,300.409125923037,300.337481949553,300.337481949553,300.337481949553,302.172891236616,0.2,5000.0,15.0,0.5
89,289.002615307423,300.367364867846,300.377853259236,300.388341650626,300.398830042016,300.409318433406,300.341407270079,300.341407270079,300.341407270079,302.176816557142,0.2,5000.0,15.0,0.5
90,289.006399673474,300.371461084639,300.382040461381,300.392619838123,300.403199214865,300.413778591607,300.345337220123,300.345337220123,300.345337220123,302.180746507187,0.2,5000.0,15.0,0.5
91,289.010183878506,300.375556735029,300.386226657025,300.396896579022,300.407566501018,300.418236423015,300.349268737733,300.349268737733,300.349268737733,302.184678024796,0.2,5000.0,15.0,0.5
92,289.013967922343,300.379651821463,300.390411851528,300.401171881594,300.411931911659,300.422691941724,300.35320181288,300.35320181288,300.35320181288,302.188611099943,0.2,5000.0,15.0,0.5
93,289.017751804808,300.383746346364,300.394596050193,300.405445754021,300.41629545785,300.427145161678,300.357136435625,300.357136435625,300.357136435625,302.192545722688,0.2,5000.0,15.0,0.5
94,289.021535525725,300.387840312127,300.398779258263,300.4097182044,300.420657150536,300.431596096672,300.361072596116,300.361072596116,300.361072596116,302.196481883179,0.2,5000.0,15.0,0.5
95,289.025319084919,300.391933721122,300.402961480931,300.41398924074,300.42501700055,300.436044760359,300.36501028458,300.36501028458,300.36501028458,302.200419571643,0.2,5000.0,15.0,0.5
96,289.029102482217,300.396026575694,300.407142723333,300.418258870973,300.429375018612,300.440491166252,300.368949491325,300.368949491325,300.368949491325,302.204358778388,0.2,5000.0,15.0,0.5
97,289.032885717447,300.400118878163,300.411322990555,300.422527102948,300.43373121534,300.444935327732,300.372890206737,300.372890206737,300.372890206737,302.208299493801,0.2,5000.0,15.0,0.5
98,289.036668790435,300.404210630828,300.415502287634,300.426793944439,300.438085601245,300.44937725805,300.376832421277,300.376832421277,300.376832421277,302.21224170834,0.2,5000.0,15.0,0.5
99,289.040875488354,300.407806240286,300.418142165182,300.428478090077,300.438814014972,300.449149939867,300.380767585877,300.380767585877,300.380767585877,302.21617687294,0.2,5000.0,15.0,0.5
100,289.044662329015,300.41189220726,300.422304875988,300.432717544717,300.443130213445,300.453542882174,300.384712270108,300.384712270108,300.384712270108,302.220121557172,0.2,5000.0,15.0,0.5
101,289.048449004543,300.415977636583,300.426466645611,300.43695565464,300.447444663668,300.457933672696,300.388658404186,300.388658404186,300.388658404186,302.224067691249,0.2,5000.0,15.0,0.5
102,289.052235514825,300.420062530463,300.430627478827,300.441192427191,300.451757375555,300.462322323919,300.392605978342,300.392605978342,300.392605978342,302.228015265405,0.2,5000.0,15.0,0.5
103,289.056021859745,300.424146891083,300.434787380366,300.445427869648,300.45606835893,300.466708848212,300.396554982875,300.396554982875,300.396554982875,302.231964269938,0.2,5000.0,15.0,0.5
