Time,TC1_tip,TC2,TC3,TC4,TC5,TC6,TC7,TC8,TC9,TC10,h,flux,abs,surf
1,285.61387475701,300.022981374334,300.014810205477,300.009496005168,300.006088643802,300.003903911468,300.002503105305,300.001807543457,300.001807543457,300.868860923483,0.2,5000.0,20.0,0.7
2,285.623910864035,300.008983975212,300.029621277593,300.018992649675,300.012177741357,300.007808135645,300.005006420993,300.003623294901,300.003623294901,300.870676674926,0.2,5000.0,20.0,0.7
3,285.630169420456,300.008005502887,300.034910991633,300.028490087754,300.018267301261,300.011712588615,300.007509903745,300.005445391094,300.005445391094,300.87249877112,0.2,5000.0,20.0,0.7
4,285.634616484658,300.009338783504,300.03245944038,300.03798818843,300.024357329815,300.015617372468,300.010013598325,300.007272790532,300.007272790532,300.874326170557,0.2,5000.0,20.0,0.7
5,285.638899046092,300.011283467654,300.031482764389,300.047476737915,300.030447832933,300.019522537167,300.012517433131,300.009104778909,300.009104778909,300.876158158935,0.2,5000.0,20.0,0.7
6,285.642037033387,300.01348742641,300.032399130483,300.051310834556,300.036538749255,300.023427956681,300.015021556087,300.010940964676,300.010940964676,300.877994344702,0.2,5000.0,20.0,0.7
7,285.645182227021,300.015779322036,300.033491220231,300.051203118426,300.04263027487,300.027333691646,300.017525823373,300.012780941814,300.012780941814,300.879834321839,0.2,5000.0,20.0,0.7
8,285.648226249677,300.018111970462,300.034788001501,300.051464032541,300.04872217916,300.031239688063,300.020030261592,300.014624449799,300.014624449799,300.881677829824,0.2,5000.0,20.0,0.7
9,285.65111500269,300.020456525682,300.036292845316,300.05212916495,300.054814551721,300.0351460527,300.022534980458,300.016471277495,300.016471277495,300.883524657521,0.2,5000.0,20.0,0.7
10,285.653821852433,300.022797128007,300.038003937192,300.053210746377,300.060902040787,300.039052675188,300.025039814652,300.018321249166,300.018321249166,300.885374629192,0.2,5000.0,20.0,0.7
11,285.656332807481,300.025126401089,300.039922325139,300.054718249189,300.06679675949,300.042959685111,300.027544869326,300.020174215554,300.020174215554,300.88722759558,0.2,5000.0,20.0,0.7
12,285.658635931868,300.027442063386,300.042057306446,300.056672549507,300.071287792568,300.046866986305,300.030050189615,300.022030048078,300.022030048078,300.889083428104,0.2,5000.0,20.0,0.7
13,285.661309173346,300.029761915598,300.043764559489,300.057767203381,300.071769847272,300.050774562277,300.032555627837,300.023888578874,300.023888578874,300.8909419589,0.2,5000.0,20.0,0.7
14,285.663747121764,300.032064394289,300.045712911463,300.059361428636,300.07300994581,300.054682439415,300.035061303348,300.025749762886,300.025749762886,300.892803142912,0.2,5000.0,20.0,0.7
15,285.665954238398,300.034353787264,300.047906083796,300.061458380327,300.075010676859,300.058590680109,300.037567190405,300.027613511276,300.027613511276,300.894666891302,0.2,5000.0,20.0,0.7
16,285.668213056132,300.036636391076,300.050024057049,300.063411723023,300.076799388997,300.06249920026,300.040073241431,300.029479715671,300.029479715671,300.896533095696,0.2,5000.0,20.0,0.7
17,285.670515277327,300.038910814208,300.052073702019,300.06523658983,300.078399477641,300.066407967475,300.042579473703,300.031348303416,300.031348303416,300.898401683442,0.2,5000.0,20.0,0.7
18,285.672853358042,300.041175715768,300.054061106675,300.066946497582,300.079831888489,300.07031714734,300.045085958466,300.033219208382,300.033219208382,300.900272588408,0.2,5000.0,20.0,0.7
19,285.674948056609,300.043436813443,300.056327578497,300.069218343552,300.082109108606,300.074226548799,300.047592613919,300.035092398823,300.035092398823,300.902145778849,0.2,5000.0,20.0,0.7
20,285.67734496668,300.045682363291,300.058205057822,300.070727752354,300.083250446885,300.078135667406,300.050099478733,300.036967761369,300.036967761369,300.904021141394,0.2,5000.0,20.0,0.7
21,285.67949546354,300.047928060674,300.060373457192,300.07281885371,300.085264250227,300.082043759574,300.052606577137,300.038845302189,300.038845302189,300.905898682214,0.2,5000.0,20.0,0.7
22,285.681668945077,300.050166399674,300.062499332308,300.074832264941,300.087165197574,300.085947089862,300.055113825324,300.040724944642,300.040724944642,300.907778324667,0.2,5000.0,20.0,0.7
23,285.68386259792,300.052396890272,300.064584974604,300.076773058937,300.088961143269,300.089836078054,300.057621286764,300.042606644178,300.042606644178,300.909660024204,0.2,5000.0,20.0,0.7
24,285.686073784961,300.054619058093,300.066632500418,300.078645942743,300.090659385068,300.093687516016,300.060128934845,300.044490359193,300.044490359193,300.911543739219,0.2,5000.0,20.0,0.7
25,285.688039744211,300.056856349027,300.069000921624,300.081145494221,300.093290066818,300.097529378347,300.062636805515,300.046376079767,300.046376079767,300.913429459793,0.2,5000.0,20.0,0.7
26,285.69028292374,300.059063861612,300.070980011763,300.082896161914,300.094812312064,300.101207754928,300.065144821187,300.048263711102,300.048263711102,300.915317091127,0.2,5000.0,20.0,0.7
27,285.692537143046,300.061261860106,300.072926149007,300.084590437909,300.09625472681,300.104630642424,300.067653097329,300.050153247852,300.050153247852,300.917206627878,0.2,5000.0,20.0,0.7
28,285.69454709588,300.063482969529,300.075208782099,300.08693459467,300.098660407241,300.108085942509,300.070161604573,300.052044686479,300.052044686479,300.919098066505,0.2,5000.0,20.0,0.7
29,285.696568181977,300.065699842932,300.077469409423,300.089238975913,300.101008542404,300.111362888076,300.072670215613,300.053937967197,300.053937967197,300.920991347222,0.2,5000.0,20.0,0.7
30,285.698855553264,300.067874503675,300.079327552782,300.09078060189,300.102233650997,300.113520552865,300.075179111208,300.055833031512,300.055833031512,300.922886411538,0.2,5000.0,20.0,0.7
31,285.70089486863,300.070080556123,300.081544009091,300.093007462059,300.104470915027,300.115934367996,300.077688116208,300.057729910428,300.057729910428,300.924783290454,0.2,5000.0,20.0,0.7
32,285.702939547226,300.072282683769,300.083745916634,300.095209149498,300.106672382362,300.118135615226,300.080197425932,300.059628548501,300.059628548501,300.926681928526,0.2,5000.0,20.0,0.7
33,285.704992558187,300.074480259139,300.085928459165,300.097376659191,300.108824859217,300.120273059243,300.082706897507,300.061528920182,300.061528920182,300.928582300208,0.2,5000.0,20.0,0.7
34,285.70705335551,300.076673196002,300.088092099978,300.099511003953,300.110929907928,300.122348811904,300.085216545927,300.063431001489,300.063431001489,300.930484381515,0.2,5000.0,20.0,0.7
35,285.709121409717,300.078861409188,300.090237285098,300.101613161008,300.112989036919,300.124364912829,300.087726385407,300.065334769509,300.065334769509,300.932388149535,0.2,5000.0,20.0,0.7
36,285.711196204864,300.081044815173,300.09236444804,300.103684080907,300.115003713774,300.126323346642,300.09023642697,300.067240202323,300.067240202323,300.934293582349,0.2,5000.0,20.0,0.7
37,285.713277241208,300.083223331557,300.094474005567,300.105724679576,300.116975353585,300.128226027595,300.092746677641,300.069147278935,300.069147278935,300.936200658961,0.2,5000.0,20.0,0.7
38,285.715364033687,300.085396877319,300.096566360011,300.107735842703,300.118905325395,300.130074808086,300.095257139567,300.071055979211,300.071055979211,300.938109359236,0.2,5000.0,20.0,0.7
39,285.717456111518,300.087565372865,300.098641899861,300.109718426857,300.120794953853,300.131871480849,300.097767809001,300.07296628382,300.07296628382,300.940019663846,0.2,5000.0,20.0,0.7
40,285.719553017796,300.089728740069,300.100701000313,300.111673260556,300.1226455208,300.133617781044,300.100278675079,300.074878174184,300.074878174184,300.941931554209,0.2,5000.0,20.0,0.7
41,285.721654309112,300.091886902313,300.102744023801,300.113601145289,300.124458266778,300.135315388266,300.102789718258,300.076791632428,300.076791632428,300.943845012454,0.2,5000.0,20.0,0.7
42,285.723511458243,300.094111654581,300.105214483522,300.116317312464,300.127420141406,300.138522970348,300.105300969739,300.078706670849,300.078706670849,300.945760050874,0.2,5000.0,20.0,0.7
43,285.725622490426,300.096262377995,300.107230432462,300.11819848693,300.129166541397,300.140134595864,300.107812345824,300.080623213755,300.080623213755,300.94767659378,0.2,5000.0,20.0,0.7
44,285.727736862886,300.098407724664,300.109231176731,300.120054628798,300.130878080865,300.141701532932,300.11032393553,300.082541274719,300.082541274719,300.949594654745,0.2,5000.0,20.0,0.7
45,285.729854174652,300.100547622806,300.111217038852,300.121886454898,300.132555870945,300.143225286991,300.112835656095,300.084460838289,300.084460838289,300.951514218314,0.2,5000.0,20.0,0.7
46,285.731728157247,300.102765235803,300.11365268435,300.124540132897,300.135427581443,300.14631502999,300.115347654701,300.086381919063,300.086381919063,300.953435299088,0.2,5000.0,20.0,0.7
47,285.733853242987,300.104897388721,300.115613149762,300.126328910803,300.137044671844,300.147760432885,300.117859604678,300.088304443399,300.088304443399,300.955357823425,0.2,5000.0,20.0,0.7
48,285.735980318389,300.107023930199,300.117559511729,300.128095093259,300.138630674789,300.149166256318,300.120371570405,300.090228426983,300.090228426983,300.957281807008,0.2,5000.0,20.0,0.7
49,285.737864559715,300.109236514603,300.119972520063,300.130708525522,300.141444530981,300.15218053644,300.122884044335,300.092153885832,300.092153885832,300.959207265857,0.2,5000.0,20.0,0.7
50,285.739998118251,300.111355111909,300.121894590935,300.132434069961,300.142973548987,300.153513028013,300.125396032855,300.094080747557,300.094080747557,300.961134127583,0.2,5000.0,20.0,0.7
51,285.741887204053,300.113564892438,300.124296009426,300.135027126415,300.145758243403,300.156489360391,300.127908778993,300.096009058836,300.096009058836,300.963062438862,0.2,5000.0,20.0,0.7
52,285.744026538387,300.115675440484,300.126194403276,300.136713366067,300.147232328859,300.157751291651,300.130420445709,300.097938747778,300.097938747778,300.964992127803,0.2,5000.0,20.0,0.7
53,285.745920282399,300.117882413916,300.128584444858,300.139286475799,300.149988506741,300.160690537683,300.132933383201,300.099869862046,300.099869862046,300.966923242071,0.2,5000.0,20.0,0.7
54,285.748064707371,300.119984808921,300.13045975234,300.140934695758,300.151409639177,300.161884582596,300.135444333917,300.101802330232,300.101802330232,300.968855710257,0.2,5000.0,20.0,0.7
55,285.749962932572,300.122188968682,300.132838612017,300.143488255351,300.154137898685,300.16478754202,300.137957347923,300.103736200862,300.103736200862,300.970789580888,0.2,5000.0,20.0,0.7
56,285.752111806939,300.124283098204,300.134691353851,300.145099609498,300.155507865145,300.165916120793,300.140466969063,300.105671402993,300.105671402993,300.972724783018,0.2,5000.0,20.0,0.7
57,285.754014350871,300.126484431651,300.137059196736,300.147633961821,300.158208726906,300.168783491991,300.142979900378,300.107607985916,300.107607985916,300.974661365942,0.2,5000.0,20.0,0.7
58,285.75616701346,300.128570201671,300.138889955745,300.149209709819,300.159529463893,300.169849217966,300.145487285241,300.109545879122,300.109545879122,300.976599259148,0.2,5000.0,20.0,0.7
59,285.758073687192,300.130768708506,300.141247004038,300.15172529957,300.162203595101,300.172681890633,300.147999919785,300.111485132599,300.111485132599,300.978538512624,0.2,5000.0,20.0,0.7
60,285.759980330883,300.132966725856,300.143603061118,300.15423939638,300.164875731643,300.175512066905,300.150512615384,300.113425706515,300.113425706515,300.98047908654,0.2,5000.0,20.0,0.7
61,285.76214014727,300.135041693214,300.145402748544,300.155763803874,300.166124859204,300.176485914534,300.153015838696,300.115367560617,300.115367560617,300.982420940642,0.2,5000.0,20.0,0.7
62,285.764050745562,300.13723688646,300.147748222918,300.158259559376,300.168770895834,300.179282232292,300.155527910887,300.117310746403,300.117310746403,300.984364126428,0.2,5000.0,20.0,0.7
63,285.766212962466,300.139303279967,300.149527115126,300.159750950286,300.169974785445,300.180198620604,300.15802554877,300.119255193584,300.119255193584,300.986308573609,0.2,5000.0,20.0,0.7
64,285.768127349595,300.14149564027,300.151862183779,300.162228727287,300.172595270796,300.182961814305,300.160536648207,300.121200954465,300.121200954465,300.98825433449,0.2,5000.0,20.0,0.7
65,285.770041697319,300.143687532923,300.154196318007,300.164705103092,300.175213888177,300.185722673262,300.163047701519,300.12314798982,300.12314798982,300.990201369846,0.2,5000.0,20.0,0.7
66,285.772209400868,300.145742882222,300.155945598854,300.166148315485,300.176351032117,300.186553748749,300.165536036508,300.125096259498,300.125096259498,300.992149639523,0.2,5000.0,20.0,0.7
67,285.774127371088,300.147931941149,300.158269521904,300.16860710266,300.178944683415,300.18928226417,300.168045573414,300.127045817928,300.127045817928,300.994099197953,0.2,5000.0,20.0,0.7
68,285.776045297367,300.150120543685,300.160592539469,300.171064535252,300.181536531036,300.19200852682,300.170554992412,300.128996625745,300.128996625745,300.996050005771,0.2,5000.0,20.0,0.7
69,285.778217613755,300.152164723714,300.162312977524,300.172461231334,300.182609485145,300.192757738955,300.173029770325,300.130948641845,300.130948641845,300.998002021871,0.2,5000.0,20.0,0.7
70,285.780139000108,300.154350490284,300.164625970783,300.174901451281,300.185176931779,300.195452412277,300.175537044107,300.132901924026,300.132901924026,300.999955304052,0.2,5000.0,20.0,0.7
71,285.782060338181,300.156535810984,300.166938085713,300.177340360442,300.187742635171,300.1981449099,300.178044118397,300.134856432101,300.134856432101,301.001909812127,0.2,5000.0,20.0,0.7
72,285.784236422046,300.158568698023,300.168630418824,300.178692139625,300.188753860426,300.198815581226,300.180499998233,300.13681212251,300.13681212251,301.003865502536,0.2,5000.0,20.0,0.7
73,285.786161061574,300.160751179272,300.170932689223,300.181114199174,300.191295709125,300.201477219077,300.183004153036,300.138769059056,300.138769059056,301.005822439081,0.2,5000.0,20.0,0.7
74,285.788085648662,300.162933224509,300.173234106855,300.183534989202,300.193835871548,300.204136753895,300.185508018305,300.140727199397,300.140727199397,301.007780579423,0.2,5000.0,20.0,0.7
75,285.79026468223,300.164954696577,300.174899043972,300.184843391367,300.194787738762,300.204732086157,300.187938304815,300.142686494699,300.142686494699,301.009739874725,0.2,5000.0,20.0,0.7
76,285.792192415851,300.16713389782,300.177190790275,300.18724768273,300.197304575186,300.207361467641,300.190438346388,300.144647019924,300.144647019924,301.01170039995,0.2,5000.0,20.0,0.7
77,285.794120093045,300.169312672321,300.179481707937,300.189650743553,300.199819779169,300.209988814785,300.192938001639,300.14660872805,300.14660872805,301.013662108075,0.2,5000.0,20.0,0.7
78,285.796045532943,300.17149243064,300.181777324058,300.192062217476,300.202347110894,300.212632004312,300.195438041678,300.148571612834,300.148571612834,301.015624992859,0.2,5000.0,20.0,0.7
79,285.798227210117,300.173501773986,300.183413729762,300.193325685539,300.203237641316,300.213149597093,300.197831486189,300.150535612156,300.150535612156,301.017588992181,0.2,5000.0,20.0,0.7
80,285.800155105822,300.175679131284,300.185701417191,300.195723703098,300.205745989005,300.215768274912,300.200327159788,300.152500827057,300.152500827057,301.019554207082,0.2,5000.0,20.0,0.7
81,285.802082880715,300.17785611132,300.187988455569,300.198120799817,300.208253144065,300.218385488314,300.202822430912,300.154467198738,300.154467198738,301.021520578764,0.2,5000.0,20.0,0.7
82,285.80401053475,300.180032715835,300.190274848598,300.200516981361,300.210759114124,300.221001246886,300.205317295947,300.156434721001,300.156434721001,301.023488101026,0.2,5000.0,20.0,0.7
83,285.806196702521,300.182028240253,300.191877003759,300.201725767266,300.211574530772,300.221423294278,300.207662336035,300.158403306272,300.158403306272,301.025456686298,0.2,5000.0,20.0,0.7
84,285.808127200374,300.184202106314,300.194154303589,300.204106500865,300.214058698141,300.224010895417,300.210151544675,300.160373105974,300.160373105974,301.027426486,0.2,5000.0,20.0,0.7
85,285.810057576641,300.186375605105,300.196430976219,300.206486347333,300.216541718447,300.226597089561,300.212640265489,300.162344037838,300.162344037838,301.029397417864,0.2,5000.0,20.0,0.7
86,285.811987831285,300.188548738233,300.198707025058,300.208865311882,300.219023598706,300.229181885531,300.215128495821,300.164316096046,300.164316096046,301.031369476071,0.2,5000.0,20.0,0.7
87,285.813917964267,300.190721507276,300.200982453456,300.211243399635,300.221504345815,300.231765291994,300.217616233131,300.166289274874,300.166289274874,301.033342654899,0.2,5000.0,20.0,0.7
88,285.816110474339,300.192700706938,300.202542923537,300.212385140135,300.222227356733,300.232069573331,300.219893321189,300.168263428869,300.168263428869,301.035316808895,0.2,5000.0,20.0,0.7
89,285.818043316462,300.194870744451,300.204809432086,300.214748119721,300.224686807356,300.234625494991,300.222374128105,300.170238821713,300.170238821713,301.037292201739,0.2,5000.0,20.0,0.7
90,285.819976036251,300.197040425559,300.207075337081,300.217110248604,300.227145160126,300.237180071648,300.224854363482,300.172215317777,300.172215317777,301.039268697802,0.2,5000.0,20.0,0.7
91,285.821908633673,300.199209751727,300.209340641627,300.219471531527,300.229602421427,300.239733311327,300.227334025784,300.174192911639,300.174192911639,301.041246291664,0.2,5000.0,20.0,0.7
92,285.823841108697,300.201378724393,300.211605348777,300.22183197316,300.232058597544,300.242285221927,300.229813113567,300.176171597958,300.176171597958,301.043224977983,0.2,5000.0,20.0,0.7
93,285.826038751204,300.203341455898,300.213125260316,300.222909064735,300.232692869153,300.242476673572,300.232004484355,300.178151120923,300.178151120923,301.045204500949,0.2,5000.0,20.0,0.7
94,285.8279738037,300.205507702439,300.21538121424,300.225254726042,300.235128237843,300.245001749644,300.234475280655,300.180131957845,300.180131957845,301.047185337871,0.2,5000.0,20.0,0.7
95,285.829908733174,300.207673602691,300.217636586612,300.227599570533,300.237562554453,300.247525538374,300.236945428357,300.182113870438,300.182113870438,301.049167250464,0.2,5000.0,20.0,0.7
96,285.831843539605,300.209839157994,300.219891380268,300.229943602542,300.239995824816,300.250048047089,300.239414927012,300.184096853594,300.184096853594,301.05115023362,0.2,5000.0,20.0,0.7
97,285.833778223586,300.212004369176,300.222145596239,300.232286823303,300.242428050367,300.252569277431,300.241883775454,300.186080902269,300.186080902269,301.053134282295,0.2,5000.0,20.0,0.7
98,285.835979828161,300.213950492347,300.223626035955,300.233301579564,300.242977123172,300.25265266678,300.243969859041,300.188065561634,300.188065561634,301.05511894166,0.2,5000.0,20.0,0.7
99,285.83791696094,300.216112981721,300.225871659515,300.235630337308,300.245389015102,300.255147692895,300.246429018307,300.190051694811,300.190051694811,301.057105074836,0.2,5000.0,20.0,0.7
100,285.839853970117,300.218275134264,300.228116722021,300.237958309779,300.247799897537,300.257641485295,300.248887460353,300.192038876929,300.192038876929,301.059092256954,0.2,5000.0,20.0,0.7
101,285.841790855674,300.220436951216,300.2303612261,300.240285500985,300.25020977587,300.260134050754,300.251345185747,300.194027103115,300.194027103115,301.061080483141,0.2,5000.0,20.0,0.7
102,285.843727617589,300.222598433803,300.232605174342,300.242611914881,300.25261865542,300.26262539596,300.253802195107,300.196016368553,300.196016368553,301.063069748578,0.2,5000.0,20.0,0.7
103,285.845664249468,300.224759588591,300.234848588048,300.244937587505,300.255026586962,300.265115586419,300.256258499812,300.198006668492,300.198006668492,301.065060048517,0.2,5000.0,20.0,0.7
