Time,TC1_tip,TC2,TC3,TC4,TC5,TC6,TC7,TC8,TC9,TC10,h,flux,abs,surf
1,285.60587595776,300.012905910094,300.009247468876,300.006626116807,300.004747804799,300.003401962221,300.002448265946,300.002448265946,300.002448265946,301.83785755301,0.3,5000.0,10.0,0.7
2,285.613874776428,300.00854983709,300.018495131245,300.013252335346,300.009495706754,300.006803964661,300.004901158261,300.004901158261,300.004901158261,301.840310445324,0.3,5000.0,10.0,0.7
3,285.619695759623,300.002342470205,300.027742911059,300.01987868096,300.014243696962,300.010206045999,300.007358008488,300.007358008488,300.007358008488,301.842767295551,0.3,5000.0,10.0,0.7
4,285.623910889343,300.001066476518,300.026936203659,300.026505113344,300.018991738266,300.013608170899,300.00981831125,300.00981831125,300.00981831125,301.845227598314,0.3,5000.0,10.0,0.7
5,285.627403828001,300.001298694571,300.023421836868,300.033131715298,300.023739910461,300.017010399091,300.012281666334,300.012281666334,300.012281666334,301.847690953397,0.3,5000.0,10.0,0.7
6,285.63016945493,300.002110941696,300.021934568902,300.039746732146,300.028488165209,300.020412669205,300.014747806418,300.014747806418,300.014747806418,301.850157093481,0.3,5000.0,10.0,0.7
7,285.632748364794,300.003202814541,300.021237161951,300.039271509362,300.033236497858,300.023814985451,300.017216478742,300.017216478742,300.017216478742,301.852625765805,0.3,5000.0,10.0,0.7
8,285.635082124846,300.004425569086,300.02108979928,300.037754029475,300.03798495312,300.02721739907,300.0196875157,300.0196875157,300.0196875157,301.855096802764,0.3,5000.0,10.0,0.7
9,285.637124610192,300.005688209857,300.021357635131,300.037027060405,300.042733486495,300.030619872807,300.022160781056,300.022160781056,300.022160781056,301.857570068119,0.3,5000.0,10.0,0.7
10,285.638899060268,300.006946769944,300.02192347098,300.036900172016,300.047481372581,300.034022420267,300.024636154479,300.024636154479,300.024636154479,301.860045441542,0.3,5000.0,10.0,0.7
11,285.640406774648,300.008172780333,300.022727136348,300.037281492363,300.051743400258,300.037425010218,300.027113534036,300.027113534036,300.027113534036,301.8625228211,0.3,5000.0,10.0,0.7
12,285.642422262413,300.009552183147,300.023266522276,300.036980861405,300.050695200535,300.040827684269,300.029592754601,300.029592754601,300.029592754601,301.865002041664,0.3,5000.0,10.0,0.7
13,285.643758301436,300.010769104359,300.024247706301,300.037726308243,300.051204910185,300.044230440061,300.032073855254,300.032073855254,300.032073855254,301.867483142317,0.3,5000.0,10.0,0.7
14,285.645544503508,300.012117647018,300.024985591803,300.037853536589,300.050721481375,300.047633240596,300.034556656232,300.034556656232,300.034556656232,301.869965943295,0.3,5000.0,10.0,0.7
15,285.647029486064,300.013390644572,300.025912099124,300.038433553675,300.050955008227,300.051036124875,300.037041169495,300.037041169495,300.037041169495,301.872450456558,0.3,5000.0,10.0,0.7
16,285.648226276392,300.014586313501,300.027008659457,300.039431005412,300.051853351367,300.054439068063,300.039527336936,300.039527336936,300.039527336936,301.874936623999,0.3,5000.0,10.0,0.7
17,285.649818228015,300.015895340438,300.027887150382,300.039878960325,300.051870770269,300.057841309457,300.042015045069,300.042015045069,300.042015045069,301.877424332133,0.3,5000.0,10.0,0.7
18,285.651115034168,300.017121909716,300.028933070421,300.040744231126,300.052555391831,300.06121765337,300.044504311458,300.044504311458,300.044504311458,301.879913598521,0.3,5000.0,10.0,0.7
19,285.652451765121,300.018359868118,300.029956825832,300.041553783546,300.05315074126,300.064204543006,300.046995063786,300.046995063786,300.046995063786,301.88240435085,0.3,5000.0,10.0,0.7
20,285.653821889192,300.019606746088,300.030960792837,300.042314839587,300.053668886336,300.065022933085,300.049487264601,300.049487264601,300.049487264601,301.884896551664,0.3,5000.0,10.0,0.7
21,285.655219523558,300.020860249519,300.031946967563,300.043033685607,300.054120403652,300.065207121696,300.051980879306,300.051980879306,300.051980879306,301.887390166369,0.3,5000.0,10.0,0.7
22,285.656332850258,300.022032420194,300.033090501035,300.044148581875,300.055206662715,300.066264743556,300.054475897507,300.054475897507,300.054475897507,301.88988518457,0.3,5000.0,10.0,0.7
23,285.657778468063,300.023296080069,300.034042757126,300.044789434183,300.055536111241,300.066282788298,300.056972243843,300.056972243843,300.056972243843,301.892381530906,0.3,5000.0,10.0,0.7
24,285.658939475765,300.024478671482,300.035153262625,300.045827853769,300.056502444913,300.067177036056,300.059469932413,300.059469932413,300.059469932413,301.894879219477,0.3,5000.0,10.0,0.7
25,285.660114757719,300.025663709608,300.036252493226,300.046841276845,300.057430060464,300.068018844082,300.061968915385,300.061968915385,300.061968915385,301.897378202448,0.3,5000.0,10.0,0.7
26,285.661309186575,300.02685232587,300.037337210863,300.047822095857,300.05830698085,300.068791865844,300.0644691672,300.0644691672,300.0644691672,301.899878454263,0.3,5000.0,10.0,0.7
27,285.662520642379,300.028043710769,300.038408170347,300.048772629925,300.059137089503,300.069501549081,300.066970660673,300.066970660673,300.066970660673,301.902379947736,0.3,5000.0,10.0,0.7
28,285.663747136665,300.029237099994,300.039466069327,300.04969503866,300.059924007993,300.070152977326,300.069473330915,300.069473330915,300.069473330915,301.904882617978,0.3,5000.0,10.0,0.7
29,285.664986807457,300.030431820085,300.04051164813,300.050591476176,300.060671304222,300.070751132267,300.071976770561,300.071976770561,300.071976770561,301.907386057624,0.3,5000.0,10.0,0.7
30,285.66623791597,300.031627603976,300.041546343982,300.051465083989,300.061383823995,300.071302564002,300.074478166317,300.074478166317,300.074478166317,301.90988745338,0.3,5000.0,10.0,0.7
31,285.667219819717,300.032753349413,300.042744415484,300.052735481556,300.062726547628,300.072717613699,300.076976638397,300.076976638397,300.076976638397,301.91238592546,0.3,5000.0,10.0,0.7
32,285.668493954591,300.03395896064,300.043773044885,300.053587129129,300.063401213373,300.073215297617,300.079428433364,300.079428433364,300.079428433364,301.914837720427,0.3,5000.0,10.0,0.7
33,285.669499612549,300.035100796931,300.044977129344,300.054853461757,300.06472979417,300.074606126584,300.081849167494,300.081849167494,300.081849167494,301.917258454557,0.3,5000.0,10.0,0.7
34,285.670792138095,300.036361528749,300.046098357451,300.055835186154,300.065572014857,300.075308843559,300.0839477659,300.0839477659,300.0839477659,301.919357052963,0.3,5000.0,10.0,0.7
35,285.689785665347,300.047645450651,300.047645450651,300.047645450651,300.047645450651,300.047645450651,300.047645450651,300.047645450651,300.047645450651,301.883054737714,0.3,5000.0,10.0,0.7
36,285.691048821478,300.049005993168,300.049005993168,300.049005993168,300.049005993168,300.049005993168,300.049005993168,300.049005993168,300.049005993168,301.884415280231,0.3,5000.0,10.0,0.7
37,285.692311938215,300.050366493693,300.050366493693,300.050366493693,300.050366493693,300.050366493693,300.050366493693,300.050366493693,300.050366493693,301.885775780756,0.3,5000.0,10.0,0.7
38,285.693575015558,300.051726952228,300.051726952228,300.051726952228,300.051726952228,300.051726952228,300.051726952228,300.051726952228,300.051726952228,301.887136239291,0.3,5000.0,10.0,0.7
39,285.694838053508,300.053087368773,300.053087368773,300.053087368773,300.053087368773,300.053087368773,300.053087368773,300.053087368773,300.053087368773,301.888496655836,0.3,5000.0,10.0,0.7
40,285.696101052067,300.05444774333,300.05444774333,300.05444774333,300.05444774333,300.05444774333,300.05444774333,300.05444774333,300.05444774333,301.889857030393,0.3,5000.0,10.0,0.7
41,285.697364011235,300.055808075899,300.055808075899,300.055808075899,300.055808075899,300.055808075899,300.055808075899,300.055808075899,300.055808075899,301.891217362963,0.3,5000.0,10.0,0.7
42,285.698626931014,300.057168366483,300.057168366483,300.057168366483,300.057168366483,300.057168366483,300.057168366483,300.057168366483,300.057168366483,301.892577653546,0.3,5000.0,10.0,0.7
43,285.699889811404,300.058528615081,300.058528615081,300.058528615081,300.058528615081,300.058528615081,300.058528615081,300.058528615081,300.058528615081,301.893937902144,0.3,5000.0,10.0,0.7
44,285.701152652406,300.059888821695,300.059888821695,300.059888821695,300.059888821694,300.059888821694,300.059888821694,300.059888821694,300.059888821694,301.895298108758,0.3,5000.0,10.0,0.7
45,285.702415454021,300.061248986325,300.061248986325,300.061248986325,300.061248986325,300.061248986325,300.061248986325,300.061248986325,300.061248986325,301.896658273388,0.3,5000.0,10.0,0.7
46,285.703678216251,300.062609108973,300.062609108973,300.062609108973,300.062609108973,300.062609108973,300.062609108973,300.062609108973,300.062609108973,301.898018396036,0.3,5000.0,10.0,0.7
47,285.704940939097,300.063969189641,300.063969189641,300.063969189641,300.063969189641,300.063969189641,300.063969189641,300.063969189641,300.063969189641,301.899378476704,0.3,5000.0,10.0,0.7
48,285.706203622558,300.065329228327,300.065329228327,300.065329228327,300.065329228327,300.065329228327,300.065329228327,300.065329228327,300.065329228327,301.90073851539,0.3,5000.0,10.0,0.7
49,285.707466266637,300.066689225035,300.066689225035,300.066689225035,300.066689225035,300.066689225035,300.066689225035,300.066689225035,300.066689225035,301.902098512099,0.3,5000.0,10.0,0.7
50,285.708728871335,300.068049179765,300.068049179765,300.068049179765,300.068049179765,300.068049179765,300.068049179765,300.068049179765,300.068049179765,301.903458466828,0.3,5000.0,10.0,0.7
51,285.709991436651,300.069409092518,300.069409092518,300.069409092517,300.069409092517,300.069409092517,300.069409092517,300.069409092517,300.069409092517,301.904818379581,0.3,5000.0,10.0,0.7
52,285.711253962588,300.070768963294,300.070768963294,300.070768963294,300.070768963294,300.070768963294,300.070768963294,300.070768963294,300.070768963294,301.906178250357,0.3,5000.0,10.0,0.7
53,285.712516449146,300.072128792095,300.072128792095,300.072128792095,300.072128792095,300.072128792095,300.072128792095,300.072128792095,300.072128792095,301.907538079158,0.3,5000.0,10.0,0.7
54,285.713778896326,300.073488578923,300.073488578923,300.073488578923,300.073488578923,300.073488578923,300.073488578923,300.073488578923,300.073488578923,301.908897865986,0.3,5000.0,10.0,0.7
55,285.715041304129,300.074848323777,300.074848323777,300.074848323777,300.074848323777,300.074848323777,300.074848323777,300.074848323777,300.074848323777,301.91025761084,0.3,5000.0,10.0,0.7
56,285.716303672557,300.07620802666,300.07620802666,300.07620802666,300.07620802666,300.07620802666,300.07620802666,300.07620802666,300.07620802666,301.911617313723,0.3,5000.0,10.0,0.7
57,285.71756600161,300.077567687571,300.077567687572,300.077567687572,300.077567687572,300.077567687572,300.077567687572,300.077567687572,300.077567687572,301.912976974635,0.3,5000.0,10.0,0.7
58,285.71882829129,300.078927306513,300.078927306513,300.078927306513,300.078927306513,300.078927306513,300.078927306513,300.078927306513,300.078927306513,301.914336593576,0.3,5000.0,10.0,0.7
59,285.720090541595,300.080286883486,300.080286883486,300.080286883486,300.080286883486,300.080286883486,300.080286883486,300.080286883486,300.080286883486,301.915696170549,0.3,5000.0,10.0,0.7
60,285.72135275253,300.081646418491,300.081646418491,300.081646418491,300.081646418491,300.081646418491,300.081646418491,300.081646418491,300.081646418491,301.917055705554,0.3,5000.0,10.0,0.7
61,285.722614924094,300.083005911529,300.083005911529,300.083005911529,300.083005911529,300.083005911529,300.083005911529,300.083005911529,300.083005911529,301.918415198592,0.3,5000.0,10.0,0.7
62,285.723877056288,300.084365362601,300.084365362601,300.084365362601,300.084365362601,300.084365362601,300.084365362601,300.084365362601,300.084365362601,301.919774649664,0.3,5000.0,10.0,0.7
63,285.725139149113,300.085724771708,300.085724771708,300.085724771708,300.085724771708,300.085724771708,300.085724771708,300.085724771708,300.085724771708,301.921134058771,0.3,5000.0,10.0,0.7
64,285.72640120257,300.087084138852,300.087084138852,300.087084138852,300.087084138852,300.087084138852,300.087084138852,300.087084138852,300.087084138852,301.922493425915,0.3,5000.0,10.0,0.7
65,285.72766321666,300.088443464033,300.088443464033,300.088443464033,300.088443464033,300.088443464033,300.088443464033,300.088443464033,300.088443464033,301.923852751096,0.3,5000.0,10.0,0.7
66,285.728925191384,300.089802747252,300.089802747252,300.089802747252,300.089802747252,300.089802747252,300.089802747252,300.089802747252,300.089802747252,301.925212034315,0.3,5000.0,10.0,0.7
67,285.730187126744,300.09116198851,300.09116198851,300.09116198851,300.09116198851,300.09116198851,300.09116198851,300.09116198851,300.09116198851,301.926571275574,0.3,5000.0,10.0,0.7
68,285.73144902274,300.092521187809,300.092521187809,300.092521187809,300.092521187809,300.092521187809,300.092521187809,300.092521187809,300.092521187809,301.927930474872,0.3,5000.0,10.0,0.7
69,285.732710879372,300.093880345149,300.093880345149,300.093880345149,300.093880345149,300.093880345149,300.093880345149,300.093880345149,300.093880345149,301.929289632212,0.3,5000.0,10.0,0.7
70,285.733972696643,300.095239460532,300.095239460532,300.095239460532,300.095239460532,300.095239460532,300.095239460532,300.095239460532,300.095239460532,301.930648747595,0.3,5000.0,10.0,0.7
71,285.735234474553,300.096598533958,300.096598533958,300.096598533958,300.096598533958,300.096598533958,300.096598533958,300.096598533958,300.096598533958,301.932007821021,0.3,5000.0,10.0,0.7
72,285.736496213103,300.097957565428,300.097957565428,300.097957565428,300.097957565428,300.097957565428,300.097957565428,300.097957565428,300.097957565428,301.933366852491,0.3,5000.0,10.0,0.7
73,285.737757912293,300.099316554944,300.099316554944,300.099316554944,300.099316554944,300.099316554943,300.099316554943,300.099316554943,300.099316554943,301.934725842007,0.3,5000.0,10.0,0.7
74,285.739019572126,300.100675502506,300.100675502506,300.100675502506,300.100675502506,300.100675502506,300.100675502506,300.100675502506,300.100675502506,301.936084789569,0.3,5000.0,10.0,0.7
75,285.740281192602,300.102034408116,300.102034408116,300.102034408116,300.102034408116,300.102034408116,300.102034408116,300.102034408116,300.102034408116,301.937443695179,0.3,5000.0,10.0,0.7
76,285.741542773722,300.103393271774,300.103393271774,300.103393271774,300.103393271774,300.103393271774,300.103393271774,300.103393271774,300.103393271774,301.938802558837,0.3,5000.0,10.0,0.7
77,285.742804315487,300.104752093482,300.104752093482,300.104752093482,300.104752093482,300.104752093482,300.104752093482,300.104752093482,300.104752093482,301.940161380545,0.3,5000.0,10.0,0.7
78,285.744065817898,300.10611087324,300.10611087324,300.10611087324,300.10611087324,300.10611087324,300.10611087324,300.10611087324,300.10611087324,301.941520160303,0.3,5000.0,10.0,0.7
79,285.745327280956,300.10746961105,300.10746961105,300.10746961105,300.10746961105,300.10746961105,300.10746961105,300.10746961105,300.10746961105,301.942878898113,0.3,5000.0,10.0,0.7
80,285.746588704662,300.108828306912,300.108828306912,300.108828306912,300.108828306912,300.108828306912,300.108828306912,300.108828306912,300.108828306912,301.944237593976,0.3,5000.0,10.0,0.7
81,285.747850089017,300.110186960829,300.110186960829,300.110186960829,300.110186960829,300.110186960829,300.110186960829,300.110186960829,300.110186960829,301.945596247892,0.3,5000.0,10.0,0.7
82,285.749111434021,300.1115455728,300.1115455728,300.1115455728,300.1115455728,300.1115455728,300.1115455728,300.1115455728,300.1115455728,301.946954859863,0.3,5000.0,10.0,0.7
83,285.750372739676,300.112904142826,300.112904142826,300.112904142826,300.112904142826,300.112904142826,300.112904142826,300.112904142826,300.112904142826,301.948313429889,0.3,5000.0,10.0,0.7
84,285.751634005984,300.11426267091,300.11426267091,300.11426267091,300.11426267091,300.114262670909,300.114262670909,300.114262670909,300.114262670909,301.949671957973,0.3,5000.0,10.0,0.7
85,285.752895232944,300.115621157051,300.115621157051,300.115621157051,300.115621157051,300.115621157051,300.115621157051,300.115621157051,300.115621157051,301.951030444114,0.3,5000.0,10.0,0.7
86,285.754156420558,300.11697960125,300.11697960125,300.11697960125,300.11697960125,300.11697960125,300.11697960125,300.11697960125,300.11697960125,301.952388888313,0.3,5000.0,10.0,0.7
87,285.755417568827,300.11833800351,300.11833800351,300.11833800351,300.11833800351,300.11833800351,300.11833800351,300.11833800351,300.11833800351,301.953747290573,0.3,5000.0,10.0,0.7
88,285.756678677752,300.11969636383,300.11969636383,300.11969636383,300.11969636383,300.11969636383,300.11969636383,300.11969636383,300.11969636383,301.955105650894,0.3,5000.0,10.0,0.7
89,285.757939747334,300.121054682213,300.121054682213,300.121054682213,300.121054682213,300.121054682213,300.121054682213,300.121054682213,300.121054682213,301.956463969276,0.3,5000.0,10.0,0.7
90,285.759200777574,300.122412958658,300.122412958658,300.122412958658,300.122412958658,300.122412958658,300.122412958658,300.122412958658,300.122412958658,301.957822245721,0.3,5000.0,10.0,0.7
91,285.760461768472,300.123771193167,300.123771193167,300.123771193167,300.123771193167,300.123771193167,300.123771193167,300.123771193167,300.123771193167,301.95918048023,0.3,5000.0,10.0,0.7
92,285.76172272003,300.125129385741,300.125129385741,300.125129385741,300.125129385741,300.125129385741,300.125129385741,300.125129385741,300.125129385741,301.960538672804,0.3,5000.0,10.0,0.7
93,285.76298363225,300.126487536381,300.126487536381,300.126487536381,300.126487536381,300.126487536381,300.126487536381,300.126487536381,300.126487536381,301.961896823444,0.3,5000.0,10.0,0.7
94,285.76424450513,300.127845645088,300.127845645088,300.127845645088,300.127845645088,300.127845645088,300.127845645088,300.127845645088,300.127845645088,301.963254932151,0.3,5000.0,10.0,0.7
95,285.765505338674,300.129203711862,300.129203711862,300.129203711862,300.129203711862,300.129203711862,300.129203711862,300.129203711862,300.129203711862,301.964612998926,0.3,5000.0,10.0,0.7
96,285.766766132882,300.130561736706,300.130561736706,300.130561736706,300.130561736706,300.130561736706,300.130561736706,300.130561736706,300.130561736706,301.965971023769,0.3,5000.0,10.0,0.7
97,285.768026887753,300.13191971962,300.13191971962,300.13191971962,300.13191971962,300.13191971962,300.13191971962,300.13191971962,300.13191971962,301.967329006683,0.3,5000.0,10.0,0.7
98,285.769287603291,300.133277660605,300.133277660605,300.133277660605,300.133277660605,300.133277660605,300.133277660605,300.133277660605,300.133277660605,301.968686947668,0.3,5000.0,10.0,0.7
99,285.770548279496,300.134635559662,300.134635559662,300.134635559662,300.134635559662,300.134635559662,300.134635559662,300.134635559662,300.134635559662,301.970044846725,0.3,5000.0,10.0,0.7
100,285.771808916368,300.135993416792,300.135993416792,300.135993416792,300.135993416792,300.135993416792,300.135993416792,300.135993416792,300.135993416792,301.971402703855,0.3,5000.0,10.0,0.7
101,285.77306951391,300.137351231996,300.137351231996,300.137351231996,300.137351231996,300.137351231996,300.137351231996,300.137351231996,300.137351231996,301.972760519059,0.3,5000.0,10.0,0.7
102,285.77433007212,300.138709005276,300.138709005276,300.138709005276,300.138709005276,300.138709005276,300.138709005276,300.138709005276,300.138709005276,301.974118292339,0.3,5000.0,10.0,0.7
103,285.775590591001,300.140066736631,300.140066736631,300.140066736631,300.140066736631,300.140066736631,300.140066736631,300.140066736631,300.140066736631,301.975476023695,0.3,5000.0,10.0,0.7
104,285.776851070555,300.141424426064,300.141424426064,300.141424426064,300.141424426064,300.141424426064,300.141424426064,300.141424426064,300.141424426064,301.976833713127,0.3,5000.0,10.0,0.7
