Time,TC1_tip,TC2,TC3,TC4,TC5,TC6,TC7,TC8,TC9,TC10,h,flux,abs,surf
1,282.880850887765,300.012905891184,300.009247475103,300.006626110856,300.004747806345,300.003401960094,300.002448105269,300.002448105269,300.002448105269,301.837857392332,0.3,5000.0,10.0,0.9
2,282.887569556174,299.99749563144,300.018495090185,300.013252327025,300.009495708594,300.006803966342,300.004900759515,300.004900759515,300.004900759515,301.840310046578,0.3,5000.0,10.0,0.9
3,282.891277032188,299.992584586219,300.018550171498,300.01987864559,300.014243666606,300.010206028536,300.007357448925,300.007357448925,300.007357448925,301.842766735988,0.3,5000.0,10.0,0.9
4,282.894077414257,299.990996776297,300.012047929815,300.026505098124,300.018991745724,300.013608176311,300.009817612018,300.009817612018,300.009817612018,301.845226899081,0.3,5000.0,10.0,0.9
5,282.896401799718,299.990542773579,300.008428606372,300.026314439164,300.023739874983,300.017010362069,300.012280849867,300.012280849867,300.012280849867,301.84769013693,0.3,5000.0,10.0,0.9
6,282.897740156239,299.990371275615,300.006529651163,300.022688026712,300.028488136646,300.020412646815,300.014746926188,300.014746926188,300.014746926188,301.850156213251,0.3,5000.0,10.0,0.9
7,282.898995875127,299.990433329389,300.00520674069,300.019980151991,300.033223005425,300.023814981195,300.017215555957,300.017215555957,300.017215555957,301.85262484302,0.3,5000.0,10.0,0.9
8,282.90009679751,299.990601650212,300.004281317133,300.017960984054,300.031640650975,300.027217376307,300.019686568016,300.019686568016,300.019686568016,301.855095855079,0.3,5000.0,10.0,0.9
9,282.901024359602,299.990806009482,300.003630315041,300.016454620599,300.029278926157,300.030619841503,300.022159818817,300.022159818817,300.022159818817,301.85756910588,0.3,5000.0,10.0,0.9
10,282.901764159229,299.991000417761,300.00317573875,300.015351059738,300.027526380726,300.03402238463,300.02463518679,300.02463518679,300.02463518679,301.860044473853,0.3,5000.0,10.0,0.9
11,282.902628049368,299.99129720854,300.002788487365,300.014279766189,300.025771045014,300.037124789958,300.027112545812,300.027112545812,300.027112545812,301.862521832875,0.3,5000.0,10.0,0.9
12,282.90327430553,299.991533838359,300.002528851585,300.013523864812,300.024518878038,300.035513891264,300.029591829118,300.029591829118,300.029591829118,301.865001116181,0.3,5000.0,10.0,0.9
13,282.903711460359,299.991698432225,300.0023625393,300.013026646375,300.02369075345,300.034354860525,300.032072952896,300.032072952896,300.032072952896,301.867482239959,0.3,5000.0,10.0,0.9
14,282.904228324445,299.991918643252,300.002218591337,300.012518539422,300.022818487506,300.033118435591,300.034555831754,300.034555831754,300.034555831754,301.869965118817,0.3,5000.0,10.0,0.9
15,282.904531773284,299.992050136384,300.002138623708,300.012227111032,300.022315598356,300.03240408568,300.037040387752,300.037040387752,300.037040387752,301.872449674815,0.3,5000.0,10.0,0.9
16,282.904897999239,299.992225752404,300.00207692843,300.011928104457,300.021779280483,300.03163045651,300.039506224918,300.039506224918,300.039506224918,301.874915511981,0.3,5000.0,10.0,0.9
17,282.92289998544,300.002573249088,300.002573249088,300.002573249088,300.002573249088,300.002573249088,300.002573249088,300.002573249088,300.002573249088,301.837982536151,0.3,5000.0,10.0,0.9
18,282.923038530877,300.002724564163,300.002724564163,300.002724564163,300.002724564163,300.002724564163,300.002724564163,300.002724564163,300.002724564163,301.838133851227,0.3,5000.0,10.0,0.9
19,282.923177070966,300.002875873404,300.002875873404,300.002875873404,300.002875873404,300.002875873404,300.002875873404,300.002875873404,300.002875873404,301.838285160467,0.3,5000.0,10.0,0.9
20,282.923315605708,300.003027176811,300.003027176811,300.003027176811,300.003027176811,300.003027176811,300.003027176811,300.003027176811,300.003027176811,301.838436463874,0.3,5000.0,10.0,0.9
21,282.923454135103,300.003178474384,300.003178474384,300.003178474384,300.003178474384,300.003178474384,300.003178474384,300.003178474384,300.003178474384,301.838587761447,0.3,5000.0,10.0,0.9
22,282.923592659151,300.003329766124,300.003329766124,300.003329766124,300.003329766124,300.003329766124,300.003329766124,300.003329766124,300.003329766124,301.838739053187,0.3,5000.0,10.0,0.9
23,282.923731177852,300.003481052031,300.003481052031,300.003481052031,300.003481052031,300.003481052031,300.003481052031,300.003481052031,300.003481052031,301.838890339094,0.3,5000.0,10.0,0.9
24,282.923869691207,300.003632332105,300.003632332105,300.003632332105,300.003632332105,300.003632332105,300.003632332105,300.003632332105,300.003632332105,301.839041619168,0.3,5000.0,10.0,0.9
25,282.924008199215,300.003783606346,300.003783606346,300.003783606346,300.003783606346,300.003783606346,300.003783606346,300.003783606346,300.003783606346,301.839192893409,0.3,5000.0,10.0,0.9
26,282.924146701878,300.003934874755,300.003934874755,300.003934874755,300.003934874755,300.003934874755,300.003934874755,300.003934874755,300.003934874755,301.839344161818,0.3,5000.0,10.0,0.9
27,282.924285199194,300.004086137331,300.004086137331,300.004086137331,300.004086137331,300.004086137331,300.004086137331,300.004086137331,300.004086137331,301.839495424394,0.3,5000.0,10.0,0.9
28,282.924423691165,300.004237394076,300.004237394076,300.004237394076,300.004237394076,300.004237394076,300.004237394076,300.004237394076,300.004237394076,301.839646681139,0.3,5000.0,10.0,0.9
29,282.924562177791,300.004388644988,300.004388644988,300.004388644988,300.004388644988,300.004388644988,300.004388644988,300.004388644988,300.004388644988,301.839797932052,0.3,5000.0,10.0,0.9
30,282.924700659071,300.00453989007,300.00453989007,300.00453989007,300.00453989007,300.00453989007,300.00453989007,300.00453989007,300.00453989007,301.839949177133,0.3,5000.0,10.0,0.9
31,282.924839135006,300.004691129319,300.004691129319,300.004691129319,300.004691129319,300.004691129319,300.004691129319,300.004691129319,300.004691129319,301.840100416382,0.3,5000.0,10.0,0.9
32,282.924977605596,300.004842362738,300.004842362738,300.004842362738,300.004842362738,300.004842362738,300.004842362738,300.004842362738,300.004842362738,301.840251649801,0.3,5000.0,10.0,0.9
33,282.925116070841,300.004993590325,300.004993590325,300.004993590325,300.004993590325,300.004993590325,300.004993590325,300.004993590325,300.004993590325,301.840402877389,0.3,5000.0,10.0,0.9
34,282.925254530742,300.005144812082,300.005144812082,300.005144812082,300.005144812082,300.005144812082,300.005144812082,300.005144812082,300.005144812082,301.840554099145,0.3,5000.0,10.0,0.9
35,282.925392985299,300.005296028009,300.005296028009,300.005296028009,300.005296028009,300.005296028009,300.005296028009,300.005296028009,300.005296028009,301.840705315072,0.3,5000.0,10.0,0.9
36,282.925531434512,300.005447238105,300.005447238105,300.005447238105,300.005447238105,300.005447238105,300.005447238105,300.005447238105,300.005447238105,301.840856525168,0.3,5000.0,10.0,0.9
37,282.925669878381,300.005598442371,300.005598442371,300.005598442371,300.005598442371,300.005598442371,300.005598442371,300.005598442371,300.005598442371,301.841007729434,0.3,5000.0,10.0,0.9
38,282.925808316906,300.005749640807,300.005749640807,300.005749640807,300.005749640807,300.005749640807,300.005749640807,300.005749640807,300.005749640807,301.84115892787,0.3,5000.0,10.0,0.9
39,282.925946750088,300.005900833414,300.005900833414,300.005900833414,300.005900833414,300.005900833414,300.005900833414,300.005900833414,300.005900833414,301.841310120477,0.3,5000.0,10.0,0.9
40,282.926085177926,300.006052020191,300.006052020191,300.006052020191,300.006052020191,300.006052020191,300.006052020191,300.006052020191,300.006052020191,301.841461307254,0.3,5000.0,10.0,0.9
41,282.926223600421,300.006203201139,300.006203201139,300.006203201139,300.006203201139,300.006203201139,300.006203201139,300.006203201139,300.006203201139,301.841612488203,0.3,5000.0,10.0,0.9
42,282.926362017574,300.006354376259,300.006354376259,300.006354376259,300.006354376259,300.006354376259,300.006354376259,300.006354376259,300.006354376259,301.841763663322,0.3,5000.0,10.0,0.9
43,282.926500429384,300.006505545549,300.006505545549,300.006505545549,300.006505545549,300.006505545549,300.006505545549,300.006505545549,300.006505545549,301.841914832612,0.3,5000.0,10.0,0.9
44,282.926638835852,300.006656709011,300.006656709011,300.006656709011,300.006656709011,300.006656709011,300.006656709011,300.006656709011,300.006656709011,301.842065996074,0.3,5000.0,10.0,0.9
45,282.926777236977,300.006807866645,300.006807866645,300.006807866645,300.006807866645,300.006807866645,300.006807866645,300.006807866645,300.006807866645,301.842217153708,0.3,5000.0,10.0,0.9
46,282.926915632761,300.006959018451,300.006959018451,300.006959018451,300.006959018451,300.006959018451,300.006959018451,300.006959018451,300.006959018451,301.842368305514,0.3,5000.0,10.0,0.9
47,282.927054023202,300.007110164428,300.007110164428,300.007110164428,300.007110164428,300.007110164428,300.007110164428,300.007110164428,300.007110164428,301.842519451491,0.3,5000.0,10.0,0.9
48,282.927192408302,300.007261304579,300.007261304579,300.007261304579,300.007261304579,300.007261304579,300.007261304579,300.007261304579,300.007261304579,301.842670591642,0.3,5000.0,10.0,0.9
49,282.92733078806,300.007412438901,300.007412438901,300.007412438901,300.007412438901,300.007412438901,300.007412438901,300.007412438901,300.007412438901,301.842821725965,0.3,5000.0,10.0,0.9
50,282.927469162477,300.007563567397,300.007563567397,300.007563567397,300.007563567397,300.007563567397,300.007563567397,300.007563567397,300.007563567397,301.84297285446,0.3,5000.0,10.0,0.9
51,282.927607531554,300.007714690066,300.007714690066,300.007714690066,300.007714690066,300.007714690066,300.007714690066,300.007714690066,300.007714690066,301.843123977129,0.3,5000.0,10.0,0.9
52,282.927745895288,300.007865806908,300.007865806908,300.007865806908,300.007865806908,300.007865806908,300.007865806908,300.007865806908,300.007865806908,301.843275093971,0.3,5000.0,10.0,0.9
53,282.927884253683,300.008016917923,300.008016917923,300.008016917923,300.008016917923,300.008016917923,300.008016917923,300.008016917923,300.008016917923,301.843426204986,0.3,5000.0,10.0,0.9
54,282.928022606738,300.008168023112,300.008168023112,300.008168023112,300.008168023112,300.008168023112,300.008168023112,300.008168023112,300.008168023112,301.843577310175,0.3,5000.0,10.0,0.9
55,282.928160954452,300.008319122475,300.008319122475,300.008319122475,300.008319122475,300.008319122475,300.008319122475,300.008319122475,300.008319122475,301.843728409538,0.3,5000.0,10.0,0.9
56,282.928299296826,300.008470216012,300.008470216012,300.008470216012,300.008470216012,300.008470216012,300.008470216012,300.008470216012,300.008470216012,301.843879503076,0.3,5000.0,10.0,0.9
57,282.92843763386,300.008621303724,300.008621303724,300.008621303724,300.008621303724,300.008621303724,300.008621303724,300.008621303724,300.008621303724,301.844030590787,0.3,5000.0,10.0,0.9
58,282.928575965555,300.00877238561,300.00877238561,300.00877238561,300.00877238561,300.00877238561,300.00877238561,300.00877238561,300.00877238561,301.844181672673,0.3,5000.0,10.0,0.9
59,282.92871429191,300.008923461671,300.008923461671,300.008923461671,300.008923461671,300.008923461671,300.008923461671,300.008923461671,300.008923461671,301.844332748734,0.3,5000.0,10.0,0.9
60,282.928852612927,300.009074531907,300.009074531907,300.009074531907,300.009074531907,300.009074531907,300.009074531907,300.009074531907,300.009074531907,301.844483818971,0.3,5000.0,10.0,0.9
61,282.928990928603,300.009225596319,300.009225596319,300.009225596319,300.009225596319,300.009225596319,300.009225596319,300.009225596319,300.009225596319,301.844634883382,0.3,5000.0,10.0,0.9
62,282.929129238942,300.009376654905,300.009376654905,300.009376654905,300.009376654905,300.009376654905,300.009376654905,300.009376654905,300.009376654905,301.844785941968,0.3,5000.0,10.0,0.9
63,282.929267543942,300.009527707668,300.009527707668,300.009527707668,300.009527707668,300.009527707668,300.009527707668,300.009527707668,300.009527707668,301.844936994731,0.3,5000.0,10.0,0.9
64,282.929405843603,300.009678754606,300.009678754606,300.009678754606,300.009678754606,300.009678754606,300.009678754606,300.009678754606,300.009678754606,301.845088041669,0.3,5000.0,10.0,0.9
65,282.929544137926,300.009829795721,300.009829795721,300.009829795721,300.009829795721,300.009829795721,300.009829795721,300.009829795721,300.009829795721,301.845239082784,0.3,5000.0,10.0,0.9
66,282.929682426911,300.009980831011,300.009980831011,300.009980831011,300.009980831011,300.009980831011,300.009980831011,300.009980831011,300.009980831011,301.845390118074,0.3,5000.0,10.0,0.9
67,282.929820710559,300.010131860479,300.010131860479,300.010131860479,300.010131860479,300.010131860479,300.010131860479,300.010131860479,300.010131860479,301.845541147542,0.3,5000.0,10.0,0.9
68,282.929958988869,300.010282884123,300.010282884123,300.010282884123,300.010282884123,300.010282884123,300.010282884123,300.010282884123,300.010282884123,301.845692171186,0.3,5000.0,10.0,0.9
69,282.930097261841,300.010433901944,300.010433901944,300.010433901944,300.010433901944,300.010433901944,300.010433901944,300.010433901944,300.010433901944,301.845843189007,0.3,5000.0,10.0,0.9
70,282.930235529476,300.010584913943,300.010584913943,300.010584913943,300.010584913943,300.010584913943,300.010584913943,300.010584913943,300.010584913943,301.845994201006,0.3,5000.0,10.0,0.9
71,282.930373791775,300.010735920118,300.010735920118,300.010735920118,300.010735920118,300.010735920118,300.010735920118,300.010735920118,300.010735920118,301.846145207182,0.3,5000.0,10.0,0.9
72,282.930512048736,300.010886920472,300.010886920472,300.010886920472,300.010886920472,300.010886920472,300.010886920472,300.010886920472,300.010886920472,301.846296207535,0.3,5000.0,10.0,0.9
73,282.930650300361,300.011037915003,300.011037915003,300.011037915003,300.011037915003,300.011037915003,300.011037915003,300.011037915003,300.011037915003,301.846447202067,0.3,5000.0,10.0,0.9
74,282.93078854665,300.011188903713,300.011188903713,300.011188903713,300.011188903713,300.011188903713,300.011188903713,300.011188903713,300.011188903713,301.846598190776,0.3,5000.0,10.0,0.9
75,282.930926787602,300.011339886601,300.011339886601,300.011339886601,300.011339886601,300.011339886601,300.011339886601,300.011339886601,300.011339886601,301.846749173664,0.3,5000.0,10.0,0.9
76,282.931065023219,300.011490863668,300.011490863668,300.011490863668,300.011490863668,300.011490863668,300.011490863668,300.011490863668,300.011490863668,301.846900150731,0.3,5000.0,10.0,0.9
77,282.9312032535,300.011641834913,300.011641834912,300.011641834912,300.011641834912,300.011641834912,300.011641834912,300.011641834912,300.011641834912,301.847051121976,0.3,5000.0,10.0,0.9
78,282.931341478445,300.011792800337,300.011792800337,300.011792800337,300.011792800337,300.011792800337,300.011792800337,300.011792800337,300.011792800337,301.8472020874,0.3,5000.0,10.0,0.9
79,282.931479698055,300.011943759941,300.011943759941,300.011943759941,300.011943759941,300.011943759941,300.011943759941,300.011943759941,300.011943759941,301.847353047004,0.3,5000.0,10.0,0.9
80,282.93161791233,300.012094713723,300.012094713723,300.012094713723,300.012094713723,300.012094713723,300.012094713723,300.012094713723,300.012094713723,301.847504000786,0.3,5000.0,10.0,0.9
81,282.931756121269,300.012245661686,300.012245661686,300.012245661686,300.012245661686,300.012245661686,300.012245661686,300.012245661686,300.012245661686,301.847654948749,0.3,5000.0,10.0,0.9
82,282.931894324875,300.012396603828,300.012396603828,300.012396603828,300.012396603828,300.012396603828,300.012396603828,300.012396603828,300.012396603828,301.847805890892,0.3,5000.0,10.0,0.9
83,282.932032523145,300.012547540151,300.012547540151,300.012547540151,300.012547540151,300.012547540151,300.012547540151,300.012547540151,300.012547540151,301.847956827214,0.3,5000.0,10.0,0.9
84,282.932170716081,300.012698470654,300.012698470654,300.012698470654,300.012698470654,300.012698470654,300.012698470654,300.012698470654,300.012698470654,301.848107757717,0.3,5000.0,10.0,0.9
85,282.932308903683,300.012849395337,300.012849395337,300.012849395337,300.012849395337,300.012849395337,300.012849395337,300.012849395337,300.012849395337,301.8482586824,0.3,5000.0,10.0,0.9
86,282.932447085952,300.013000314201,300.013000314201,300.013000314201,300.013000314201,300.013000314201,300.013000314201,300.013000314201,300.013000314201,301.848409601265,0.3,5000.0,10.0,0.9
87,282.932585262886,300.013151227246,300.013151227246,300.013151227246,300.013151227246,300.013151227246,300.013151227246,300.013151227246,300.013151227246,301.848560514309,0.3,5000.0,10.0,0.9
88,282.932723434487,300.013302134472,300.013302134472,300.013302134472,300.013302134472,300.013302134472,300.013302134472,300.013302134472,300.013302134472,301.848711421536,0.3,5000.0,10.0,0.9
89,282.932861600754,300.013453035881,300.013453035881,300.013453035881,300.013453035881,300.013453035881,300.013453035881,300.013453035881,300.013453035881,301.848862322944,0.3,5000.0,10.0,0.9
90,282.932999761689,300.01360393147,300.01360393147,300.01360393147,300.01360393147,300.01360393147,300.01360393147,300.01360393147,300.01360393147,301.849013218533,0.3,5000.0,10.0,0.9
91,282.93313791729,300.013754821241,300.013754821241,300.013754821241,300.013754821241,300.013754821241,300.013754821241,300.013754821241,300.013754821241,301.849164108304,0.3,5000.0,10.0,0.9
92,282.933276067559,300.013905705194,300.013905705194,300.013905705194,300.013905705194,300.013905705194,300.013905705194,300.013905705194,300.013905705194,301.849314992258,0.3,5000.0,10.0,0.9
93,282.933414212495,300.01405658333,300.01405658333,300.01405658333,300.01405658333,300.01405658333,300.01405658333,300.01405658333,300.01405658333,301.849465870393,0.3,5000.0,10.0,0.9
94,282.933552352099,300.014207455648,300.014207455648,300.014207455648,300.014207455648,300.014207455648,300.014207455648,300.014207455648,300.014207455648,301.849616742711,0.3,5000.0,10.0,0.9
95,282.933690486371,300.014358322149,300.014358322149,300.014358322149,300.014358322149,300.014358322149,300.014358322149,300.014358322149,300.014358322149,301.849767609212,0.3,5000.0,10.0,0.9
96,282.933828615311,300.014509182833,300.014509182833,300.014509182833,300.014509182833,300.014509182833,300.014509182833,300.014509182833,300.014509182833,301.849918469896,0.3,5000.0,10.0,0.9
97,282.933966738919,300.0146600377,300.0146600377,300.0146600377,300.0146600377,300.0146600377,300.0146600377,300.0146600377,300.0146600377,301.850069324763,0.3,5000.0,10.0,0.9
98,282.934104857196,300.01481088675,300.01481088675,300.01481088675,300.01481088675,300.01481088675,300.01481088675,300.01481088675,300.01481088675,301.850220173814,0.3,5000.0,10.0,0.9
99,282.934242970142,300.014961729985,300.014961729985,300.014961729985,300.014961729985,300.014961729985,300.014961729985,300.014961729985,300.014961729985,301.850371017048,0.3,5000.0,10.0,0.9
100,282.934381077756,300.015112567402,300.015112567402,300.015112567402,300.015112567403,300.015112567403,300.015112567403,300.015112567403,300.015112567403,301.850521854466,0.3,5000.0,10.0,0.9
101,282.934519180039,300.015263399004,300.015263399004,300.015263399004,300.015263399004,300.015263399004,300.015263399004,300.015263399004,300.015263399004,301.850672686068,0.3,5000.0,10.0,0.9
102,282.934657276992,300.015414224791,300.015414224791,300.015414224791,300.015414224791,300.015414224791,300.015414224791,300.015414224791,300.015414224791,301.850823511854,0.3,5000.0,10.0,0.9
103,282.934795368614,300.015565044761,300.015565044761,300.015565044761,300.015565044761,300.015565044761,300.015565044761,300.015565044761,300.015565044761,301.850974331824,0.3,5000.0,10.0,0.9
