Time,TC1_tip,TC2,TC3,TC4,TC5,TC6,TC7,TC8,TC9,TC10,h,flux,abs,surf
1,288.635839427587,300.018496464904,300.009496377131,300.004875490438,300.002503222987,300.00128519581,300.000659824657,300.000338774192,300.00024518931,300.193741040226,0.3,5000.0,20.0,0.5
2,288.649899923876,300.03699420859,300.01899346767,300.00975157378,300.005006625877,300.002570487807,300.001319732574,300.00067757333,300.000491212501,300.193987063418,0.3,5000.0,20.0,0.5
3,288.659799245748,300.044449012687,300.028491203411,300.014627781148,300.007510066909,300.003855805131,300.001979657592,300.001016395515,300.000737993513,300.19423384443,0.3,5000.0,20.0,0.5
4,288.667583708077,300.045859064045,300.037989435456,300.019504107691,300.010013907041,300.005141347611,300.00263964971,300.001355225367,300.000985450178,300.194481301095,0.3,5000.0,20.0,0.5
5,288.675020192173,300.0487744178,300.047488100154,300.024381626897,300.012517715176,300.006426920185,300.00329966077,300.001694111969,300.001233502389,300.194729353306,0.3,5000.0,20.0,0.5
6,288.681837775469,300.052786262478,300.056988859491,300.029258628006,300.015022083563,300.007712527446,300.003959770215,300.002033007993,300.001482102235,300.194977953152,0.3,5000.0,20.0,0.5
7,288.68846343857,300.057114545183,300.066489468362,300.034136685339,300.017526272896,300.008998382621,300.004619855616,300.002371940581,300.001731203695,300.195227054612,0.3,5000.0,20.0,0.5
8,288.694381742871,300.062247900067,300.075990915794,300.039014976839,300.020030906584,300.010284176104,300.005280050185,300.002710854709,300.001980784772,300.195476635689,0.3,5000.0,20.0,0.5
9,288.700503629932,300.067108679771,300.085491019995,300.043893665903,300.022535687165,300.011570074785,300.00594030667,300.003049880445,300.002230801445,300.195726652362,0.3,5000.0,20.0,0.5
10,288.706324397584,300.07226634539,300.094948215752,300.04877194156,300.025040611533,300.012856312547,300.006600542301,300.003388883254,300.00248124151,300.195977092427,0.3,5000.0,20.0,0.5
11,288.711834613264,300.077746874862,300.104129534367,300.053651246305,300.027545753424,300.014142514608,300.007260988868,300.003727881294,300.00273208692,300.196227937837,0.3,5000.0,20.0,0.5
12,288.717446948947,300.083056954946,300.066691935396,300.058531054821,300.030050911474,300.015428786909,300.007921400723,300.004066944386,300.002983310738,300.196479161655,0.3,5000.0,20.0,0.5
13,288.723137465738,300.088214993831,300.116765651721,300.063411363521,300.03255674139,300.016715105276,300.008581739214,300.004406069138,300.003234898164,300.19673074908,0.3,5000.0,20.0,0.5
14,288.728480803174,300.093778393043,300.122218622072,300.068292368095,300.03506247805,300.018001679241,300.009242371253,300.004745191874,300.003486848246,300.196982699163,0.3,5000.0,20.0,0.5
15,288.733882098574,300.099230432163,300.12737586737,300.073172058576,300.037568344729,300.019288240909,300.009902754696,300.005084323766,300.003739137863,300.19723498878,0.3,5000.0,20.0,0.5
16,288.739331834607,300.104578522846,300.132263472671,300.078054597979,300.04007430688,300.020574785017,300.010563542145,300.005423461194,300.00399175643,300.197487607347,0.3,5000.0,20.0,0.5
17,288.744809231339,300.109846816708,300.136954861359,300.082935333634,300.042580365803,300.021861459419,300.011224031709,300.005762601526,300.004244694754,300.197740545671,0.3,5000.0,20.0,0.5
18,288.75031394865,300.115031491159,300.141442518144,300.087818211918,300.045086804635,300.023148562979,300.011884919012,300.006101869664,300.004497943875,300.197993794792,0.3,5000.0,20.0,0.5
19,288.755456281308,300.120732767518,300.147407810024,300.092699749648,300.047594129413,300.024435476748,300.012545656408,300.006441140583,300.004751509504,300.19824736042,0.3,5000.0,20.0,0.5
20,288.761016190907,300.125757594737,300.151502655955,300.097583616408,300.05010085382,300.025722358746,300.013206422987,300.006780443704,300.005005356769,300.198501207686,0.3,5000.0,20.0,0.5
21,288.766211161346,300.131331480184,300.157145104639,300.102466668626,300.05260818614,300.027009960396,300.013867381854,300.007119752717,300.005259506938,300.198755357855,0.3,5000.0,20.0,0.5
22,288.771426845477,300.136853770641,300.162657481217,300.10734924352,300.055114817155,300.028297084457,300.014528274101,300.00745908181,300.005513939745,300.199009790661,0.3,5000.0,20.0,0.5
23,288.776661349361,300.142326001156,300.168045100914,300.112233601354,300.057623115779,300.029584573256,300.015189083245,300.007798430017,300.00576864925,300.199264500167,0.3,5000.0,20.0,0.5
24,288.781912852277,300.147749627512,300.173313032298,300.117118812073,300.06013035383,300.030872147487,300.015850230231,300.008137796375,300.006023629905,300.199519480822,0.3,5000.0,20.0,0.5
25,288.787179603809,300.153126031204,300.178466110883,300.122003608154,300.062638532826,300.032159493394,300.01651140466,300.008477179926,300.006278876508,300.199774727424,0.3,5000.0,20.0,0.5
26,288.792459921089,300.158456524012,300.183508951672,300.126887947179,300.065146828675,300.03344754168,300.01717248528,300.008816579713,300.006534384169,300.200030235086,0.3,5000.0,20.0,0.5
27,288.797752186167,300.163742352218,300.188445960868,300.13177267472,300.067654301538,300.03473485266,300.017833455406,300.009155994783,300.006790148284,300.200285999201,0.3,5000.0,20.0,0.5
28,288.803054847838,300.168984692073,300.193281324421,300.136659877134,300.070163754317,300.036023266223,300.018494893112,300.009495526145,300.007046164504,300.20054201542,0.3,5000.0,20.0,0.5
29,288.808366425603,300.174184639382,300.19801898204,300.141546705948,300.072672046044,300.037311011645,300.019156264445,300.00983508455,300.007302428712,300.200798279629,0.3,5000.0,20.0,0.5
30,288.81330953382,300.18011047029,300.204673680907,300.146433432929,300.07518102808,300.038599108919,300.019817613433,300.010174631512,300.0075589541,300.201054805016,0.3,5000.0,20.0,0.5
31,288.81864084768,300.185240575038,300.209244654408,300.151320345398,300.077690029613,300.039887570849,300.020478905032,300.010514236926,300.007815703025,300.201311553942,0.3,5000.0,20.0,0.5
32,288.823977600932,300.190330968108,300.213727396014,300.156206826529,300.0801998803,300.041175831469,300.021140186182,300.010853860169,300.008072688802,300.201568539719,0.3,5000.0,20.0,0.5
33,288.828944859967,300.196196248488,300.220229613521,300.161094875979,300.082709425663,300.042464246165,300.021801695025,300.01119348942,300.008329925932,300.201825776848,0.3,5000.0,20.0,0.5
34,288.834296717559,300.201220533013,300.224558628464,300.165981787823,300.085218259622,300.043752738243,300.022463481593,300.01153315652,300.008587375716,300.202083226633,0.3,5000.0,20.0,0.5
35,288.839275155961,300.20705461558,300.230983709288,300.170870245763,300.087728256362,300.045041398307,300.023125096531,300.011872839903,300.008845071083,300.202340922,0.3,5000.0,20.0,0.5
36,288.844639617788,300.212014822481,300.235166023511,300.175760850857,300.09023885883,300.046330262058,300.023786779584,300.012212549117,300.009102972589,300.202598823506,0.3,5000.0,20.0,0.5
37,288.849628560939,300.217818463063,300.241516293042,300.180650095187,300.092749125938,300.04761909324,300.024448493435,300.012552286271,300.00936111442,300.202856965337,0.3,5000.0,20.0,0.5
38,288.855003231115,300.222716508611,300.245558577636,300.185540954207,300.09525999797,300.048907749096,300.025110042649,300.01289203587,300.009619456386,300.203115307302,0.3,5000.0,20.0,0.5
39,288.86000202624,300.228490422374,300.251836252518,300.190431082695,300.097770752257,300.050196823502,300.025771848294,300.01323182645,300.00987803386,300.203373884777,0.3,5000.0,20.0,0.5
40,288.865000949148,300.234260796274,300.258106460656,300.195321579065,300.100281702572,300.05148600066,300.026433705874,300.013571644146,300.010136825492,300.203632676409,0.3,5000.0,20.0,0.5
41,288.87039262392,300.239072981709,300.261952042847,300.200213048714,300.102791676546,300.052775551599,300.027095719507,300.013911458395,300.010395809039,300.203891659956,0.3,5000.0,20.0,0.5
42,288.875399804389,300.244816731234,300.268157872101,300.20510442032,300.105303079333,300.054064900263,300.027757703886,300.014251329298,300.010655021656,300.204150872573,0.3,5000.0,20.0,0.5
43,288.88078967057,300.249588836714,300.271922655852,300.209995888781,300.107815348741,300.055353833406,300.028419902748,300.014591181211,300.010914421526,300.204410272443,0.3,5000.0,20.0,0.5
44,288.885799079062,300.255320791648,300.278101576399,300.214888076033,300.110327049094,300.056643402279,300.029081988687,300.01493110588,300.01117404649,300.204669897407,0.3,5000.0,20.0,0.5
45,288.89080826397,300.261050198273,300.284275477006,300.219780646086,300.112838947459,300.057933074191,300.029744127285,300.015271057802,300.011433874436,300.204929725353,0.3,5000.0,20.0,0.5
46,288.89620990028,300.26574247931,300.287861954766,300.224672313252,300.115351348228,300.059223405181,300.030406213771,300.015610971256,300.011693882399,300.205189733316,0.3,5000.0,20.0,0.5
47,288.901226933464,300.271445448902,300.293972326907,300.229565656047,300.117863691104,300.060513276698,300.031068452015,300.015950976142,300.011954110103,300.205449961019,0.3,5000.0,20.0,0.5
48,288.906243732526,300.277145975038,300.300077907765,300.234459378423,300.120376233525,300.061803250524,300.031730742793,300.01629100837,300.012214534953,300.205710385869,0.3,5000.0,20.0,0.5
49,288.911260296214,300.282844081482,300.306178747873,300.239353479126,300.122888975459,300.063093326658,300.032393086109,300.016631067975,300.012475155126,300.205971006042,0.3,5000.0,20.0,0.5
50,288.916678327001,300.287435526149,300.30953825731,300.244245558357,300.125400284255,300.064382616346,300.033055118365,300.016971076415,300.01273594702,300.206231797937,0.3,5000.0,20.0,0.5
51,288.921702204993,300.293107875522,300.315577578484,300.249140382932,300.127913437244,300.065672903687,300.033717569444,300.017311191426,300.012996952361,300.206492803278,0.3,5000.0,20.0,0.5
52,288.926725837146,300.298777900509,300.321612367751,300.254035578591,300.130426791241,300.066963294191,300.034380073422,300.01765133401,300.013258147884,300.206753998801,0.3,5000.0,20.0,0.5
53,288.931749222892,300.304445620524,300.327642665879,300.258931143394,300.132940346214,300.068253787853,300.035042630299,300.017991504214,300.013519531973,300.20701538289,0.3,5000.0,20.0,0.5
54,288.937179826315,300.308939500473,300.33078629285,300.263826575165,300.135455332433,300.069545256032,300.035705637567,300.018331791565,300.013781080386,300.207276931303,0.3,5000.0,20.0,0.5
55,288.94221000996,300.314582095177,300.336756962083,300.268722526309,300.137969230636,300.070835950738,300.03636830364,300.018672018601,300.014042836726,300.207538687643,0.3,5000.0,20.0,0.5
56,288.947239920875,300.32022251946,300.342723448068,300.273618824086,300.140483327128,300.072126747882,300.037031022477,300.019012273396,300.01430477706,300.207800627977,0.3,5000.0,20.0,0.5
57,288.952269568897,300.325860760016,300.348685712177,300.278515465486,300.142997621835,300.073417647464,300.037693794088,300.019352556007,300.014566899945,300.208062750862,0.3,5000.0,20.0,0.5
58,288.957298957513,300.331496821847,300.354643760808,300.28341244757,300.145512114713,300.074708649481,300.038356618475,300.01969286649,300.014829203976,300.208325054893,0.3,5000.0,20.0,0.5
59,288.962745005746,300.335873930233,300.357528556301,300.288310205782,300.148027146765,300.075998668084,300.039019549955,300.020033280496,300.015091664089,300.208587515006,0.3,5000.0,20.0,0.5
60,288.967780680031,300.341485532914,300.363428932475,300.293207770128,300.150542091036,300.077289833862,300.039682476593,300.020373647962,300.015354326132,300.208850177048,0.3,5000.0,20.0,0.5
61,288.972816085645,300.347095034147,300.369325263394,300.298105653403,300.153057234883,300.078581101388,300.040345455889,300.020714043479,300.015617165322,300.209113016239,0.3,5000.0,20.0,0.5
62,288.977851222065,300.352702449131,300.375217581065,300.303003851742,300.155572578283,300.079872470662,300.041008487844,300.02105446711,300.015880180393,300.20937603131,0.3,5000.0,20.0,0.5
63,288.982886088774,300.358307792717,300.381105916768,300.307902361189,300.158088121209,300.08116397108,300.041671572461,300.021394918922,300.01614337011,300.209639221027,0.3,5000.0,20.0,0.5
64,288.988343136171,300.362571936253,300.383744778437,300.312798811617,300.160601977595,300.082456791231,300.042334359335,300.021735456955,300.016406708597,300.209902559514,0.3,5000.0,20.0,0.5
65,288.993383795655,300.368153430376,300.389577259525,300.317697671948,300.163117942502,300.083748514438,300.042997539308,300.022075966009,300.01667024381,300.210166094727,0.3,5000.0,20.0,0.5
66,288.998424176786,300.373732922702,300.3954059123,300.322596810696,300.165634108303,300.085040340188,300.043660771827,300.022416503454,300.016933950135,300.210429801052,0.3,5000.0,20.0,0.5
67,289.003464279102,300.379310426616,300.401230764952,300.327496222775,300.16815047497,300.086332268479,300.044324056893,300.022757069364,300.017197826449,300.210693677366,0.3,5000.0,20.0,0.5
68,289.008504102144,300.384885955228,300.407051845096,300.332395903017,300.170667042476,300.087624299309,300.044987394511,300.023097663818,300.017461871653,300.21095772257,0.3,5000.0,20.0,0.5
69,289.013543645457,300.390459521378,300.412869179786,300.337295846179,300.173183810791,300.088916432678,300.045650784684,300.023438286894,300.017726084673,300.21122193559,0.3,5000.0,20.0,0.5
70,289.018582908594,300.39603113765,300.418682795543,300.342196046947,300.175700779889,300.090208668583,300.046314227414,300.023778938674,300.017990464459,300.211486315376,0.3,5000.0,20.0,0.5
71,289.023621891106,300.401600816381,300.424492718372,300.347096499935,300.178217949743,300.091501007023,300.046977722706,300.024119619241,300.018255009982,300.211750860899,0.3,5000.0,20.0,0.5
72,289.029102428557,300.405691766798,300.426747026672,300.351988690421,300.18073618991,300.092792192845,300.047641448658,300.024460366046,300.018519694047,300.212015544964,0.3,5000.0,20.0,0.5
73,289.0341467039,300.411238315223,300.432503147029,300.356889031052,300.183253669538,300.094084691967,300.048305064609,300.024801104693,300.018784567857,300.212280418773,0.3,5000.0,20.0,0.5
74,289.039190696617,300.416782966119,300.438255659442,300.36178957522,300.185771347238,300.095377292921,300.048968733458,300.025141872381,300.01904960445,300.212545455366,0.3,5000.0,20.0,0.5
75,289.044234422833,300.422325673919,300.444004451507,300.366690315862,300.188289222832,300.09666999561,300.049632455226,300.0254826692,300.019314802882,300.212810653799,0.3,5000.0,20.0,0.5
76,289.049277861946,300.427866519138,300.44974971293,300.371591247092,300.190807296482,300.09796280015,300.050296229892,300.025823495241,300.019580162229,300.213076013145,0.3,5000.0,20.0,0.5
77,289.054321013663,300.433405512266,300.455491465729,300.376492362356,300.193325568168,300.099255706541,300.050960057457,300.026164350598,300.019845681583,300.213341532499,0.3,5000.0,20.0,0.5
78,289.059363878026,300.438942662459,300.46122972878,300.381393655052,300.195844037866,300.100548740157,300.051623937926,300.026505235364,300.020111360056,300.213607210973,0.3,5000.0,20.0,0.5
79,289.064406456079,300.444477975244,300.466964512331,300.386295118491,300.198362705543,300.10184191359,300.0522878713,300.026846149636,300.020377196776,300.213873047692,0.3,5000.0,20.0,0.5
80,289.069448746071,300.450011465594,300.472695849308,300.391196746072,300.200881571194,300.103135190324,300.052951857582,300.027187093512,300.020643190888,300.214139041804,0.3,5000.0,20.0,0.5
81,289.07495103568,300.453914793064,300.474537745249,300.396077591669,300.203401882471,300.104430010237,300.053616155578,300.027528077331,300.020909313742,300.214405164658,0.3,5000.0,20.0,0.5
82,289.07999813246,300.459425833354,300.480217235768,300.40097836682,300.205921221008,300.105723480894,300.05428024526,300.027869080521,300.021175619953,300.21467147087,0.3,5000.0,20.0,0.5
83,289.085044933997,300.464935102865,300.485893394626,300.405879240326,300.208440758819,300.107017054166,300.054944387731,300.028210113609,300.021442081088,300.214937932005,0.3,5000.0,20.0,0.5
84,289.090091440062,300.470442610628,300.491566240754,300.410780204674,300.210960495883,300.108310730052,300.055608582993,300.028551176697,300.021708696353,300.21520454727,0.3,5000.0,20.0,0.5
85,289.095137650425,300.475948365517,300.49723579275,300.415681252344,300.213480432177,300.10960450855,300.056272831049,300.028892269889,300.02197546497,300.215471315887,0.3,5000.0,20.0,0.5
86,289.100183564861,300.48145237625,300.502902068892,300.420582375818,300.216000567682,300.11089838966,300.056937131901,300.02923339329,300.022242386174,300.215738237091,0.3,5000.0,20.0,0.5
87,289.10522918315,300.486954651395,300.508565087141,300.425483567577,300.218520902375,300.112192373379,300.057601485553,300.029574547007,300.022509459213,300.21600531013,0.3,5000.0,20.0,0.5
88,289.110274505075,300.492455199378,300.514224865157,300.430384820106,300.221041436234,300.113486459707,300.058265892007,300.029915731147,300.022776683349,300.216272534266,0.3,5000.0,20.0,0.5
89,289.115319530424,300.497954028481,300.519881420302,300.435286125895,300.22356216924,300.114780648642,300.058930351264,300.030256945819,300.023044057858,300.216539908774,0.3,5000.0,20.0,0.5
90,289.120364258984,300.503451146849,300.525534769652,300.440187477442,300.226083101371,300.116074940183,300.059594863329,300.030598191131,300.023311582024,300.216807432941,0.3,5000.0,20.0,0.5
91,289.125408690551,300.508946562494,300.531184930003,300.445088867256,300.228604232607,300.117369334328,300.060259428204,300.030939467195,300.023579255149,300.217075106066,0.3,5000.0,20.0,0.5
92,289.13045282492,300.514440283299,300.536831917878,300.449990287857,300.231125562927,300.118663831078,300.060924045891,300.031280774122,300.023847076542,300.217342927459,0.3,5000.0,20.0,0.5
93,289.135496661892,300.51993231702,300.542475749538,300.454891731779,300.233647092311,300.119958430431,300.061588716393,300.031622112023,300.024115045526,300.217610896443,0.3,5000.0,20.0,0.5
94,289.141031685484,300.52357476833,300.543741400607,300.459742371662,300.236167784248,300.121251452465,300.06225307477,300.031963454007,300.024383131396,300.217878982313,0.3,5000.0,20.0,0.5
95,289.14607983264,300.529045131075,300.549335558135,300.464641649333,300.238689769887,300.122546278476,300.062917840692,300.032304853509,300.024651393399,300.218147244316,0.3,5000.0,20.0,0.5
96,289.151127675834,300.534513850299,300.554926656934,300.469540866373,300.241211955851,300.123841207842,300.063582659315,300.032646284319,300.024919801026,300.218415651942,0.3,5000.0,20.0,0.5
97,289.156175214892,300.539980933172,300.560514712021,300.474440014843,300.243734342117,300.12513624056,300.064247530641,300.032987746551,300.025188353639,300.218684204556,0.3,5000.0,20.0,0.5
98,289.161222449642,300.545446386755,300.566099738187,300.479339086837,300.246256928663,300.126431376628,300.064912454673,300.033329240321,300.025457050615,300.218952901532,0.3,5000.0,20.0,0.5
99,289.166269379915,300.550910218002,300.571681750001,300.48423807449,300.248779715468,300.127726616044,300.065577431414,300.033670765746,300.025725891338,300.219221742254,0.3,5000.0,20.0,0.5
100,289.171316005544,300.556372433763,300.577260761809,300.489136969977,300.251302702509,300.129021958807,300.066242460867,300.034012322943,300.0259948752,300.219490726117,0.3,5000.0,20.0,0.5
101,289.176362326365,300.561833040794,300.582836787762,300.494035765514,300.253825889765,300.130317404913,300.066907543034,300.034353912028,300.026264001607,300.219759852524,0.3,5000.0,20.0,0.5
102,289.181408342216,300.567292045744,300.588409841792,300.498934453358,300.256349277216,300.131612954363,300.067572677919,300.034695533122,300.026533269969,300.220029120885,0.3,5000.0,20.0,0.5
103,289.186454052937,300.572749455171,300.593979937633,300.503833025809,300.258872864838,300.132908607153,300.068237865525,300.035037186341,300.026802679707,300.220298530623,0.3,5000.0,20.0,0.5
