Time,TC1_tip,TC2,TC3,TC4,TC5,TC6,TC7,TC8,TC9,TC10,h,flux,abs,surf
1,285.611137349004,300.016387425932,300.009939444392,300.006028580695,300.003656527952,300.002217781633,300.001345163419,300.00082170072,300.00082170072,300.59676136359,0.3,5000.0,15.0,0.7
2,285.619695741058,300.018132909708,300.019879238752,300.012057317167,300.007313184575,300.004435679211,300.002690366725,300.001645529234,300.001645529234,300.597585192104,0.3,5000.0,15.0,0.7
3,285.625587291049,300.012723262159,300.029819541124,300.018086468451,300.010969900346,300.006653639342,300.004035636397,300.002471289934,300.002471289934,300.598410952803,0.3,5000.0,15.0,0.7
4,285.630169430001,300.011686036079,300.039723246223,300.024115603843,300.014626943349,300.008871706774,300.005380949704,300.00329875272,300.00329875272,300.599238415589,0.3,5000.0,15.0,0.7
5,285.633887897619,300.012140410546,300.038358121577,300.030145192461,300.018284088775,300.011089785151,300.006726340929,300.004127739646,300.004127739646,300.600067402515,0.3,5000.0,15.0,0.7
6,285.636686154192,300.013293305022,300.037535745683,300.036175073666,300.021941286014,300.013308111653,300.008071768419,300.004958130261,300.004958130261,300.60089779313,0.3,5000.0,15.0,0.7
7,285.6398387765,300.01458405535,300.036592435748,300.042205190561,300.025598698067,300.015526456585,300.009417264205,300.005789760788,300.005789760788,300.601729423658,0.3,5000.0,15.0,0.7
8,285.642037039913,300.016155330652,300.037318393734,300.048235627632,300.029256358282,300.017744860612,300.01076282886,300.006622618496,300.006622618496,300.602562281365,0.3,5000.0,15.0,0.7
9,285.644460427833,300.017743181286,300.037821160342,300.054244863628,300.032914041446,300.019963362782,300.012108383449,300.007456568453,300.007456568453,300.603396231323,0.3,5000.0,15.0,0.7
10,285.646676590204,300.019390757211,300.038683937826,300.057977118441,300.036572011595,300.022182093439,300.01345410479,300.008291578145,300.008291578145,300.604231241014,0.3,5000.0,15.0,0.7
11,285.649017692367,300.021039057951,300.039405379433,300.057771700915,300.040230001411,300.024400813801,300.014799846551,300.009127574622,300.009127574622,300.605067237491,0.3,5000.0,15.0,0.7
12,285.651115014965,300.022724417135,300.040481895316,300.058239373497,300.043888376595,300.026619672088,300.016145626104,300.009964541339,300.009964541339,300.605904204208,0.3,5000.0,15.0,0.7
13,285.652971480749,300.024439527381,300.041895081253,300.059350635124,300.04754682152,300.028838511771,300.017491501511,300.010802442303,300.010802442303,300.606742105172,0.3,5000.0,15.0,0.7
14,285.654905146053,300.026143757282,300.043197584792,300.060251412302,300.051205310919,300.031057602083,300.018837411955,300.011641218732,300.011641218732,300.607580881601,0.3,5000.0,15.0,0.7
15,285.656899777383,300.027836748166,300.044407224383,300.060977700601,300.054863914301,300.033276765196,300.020183379757,300.012480840892,300.012480840892,300.608420503761,0.3,5000.0,15.0,0.7
16,285.6589394689,300.029518095954,300.045541350323,300.061564604692,300.058522889387,300.035495981369,300.021529415481,300.013321282216,300.013321282216,300.609260945085,0.3,5000.0,15.0,0.7
17,285.660709706983,300.031227916221,300.047042202156,300.062856488091,300.062181976664,300.037715254482,300.022875442595,300.014162547212,300.014162547212,300.610102210082,0.3,5000.0,15.0,0.7
18,285.662520634092,300.032926553973,300.048473486901,300.064020419829,300.065841191356,300.039934715701,300.024221666421,300.015004585438,300.015004585438,300.610944248307,0.3,5000.0,15.0,0.7
19,285.664365427116,300.034613771976,300.049842515576,300.065071259176,300.069499568424,300.042154308783,300.02556786498,300.015847376536,300.015847376536,300.611787039405,0.3,5000.0,15.0,0.7
20,285.665954245429,300.036333363778,300.051570903816,300.066808443855,300.073154434501,300.044373833883,300.026914157132,300.016690930553,300.016690930553,300.612630593423,0.3,5000.0,15.0,0.7
21,285.667855898729,300.037998514115,300.052829439583,300.06766036505,300.076769824557,300.046593670967,300.02826046928,300.01753517279,300.01753517279,300.613474835659,0.3,5000.0,15.0,0.7
22,285.669499601042,300.039699083775,300.054455872191,300.069212660608,300.080294563008,300.04881336124,300.029606885169,300.018380145013,300.018380145013,300.614319807883,0.3,5000.0,15.0,0.7
23,285.671166279756,300.0413909212,300.056038037464,300.070685153728,300.083561534862,300.051033422372,300.030953302671,300.019225803374,300.019225803374,300.615165466243,0.3,5000.0,15.0,0.7
24,285.672853367791,300.043073948461,300.057578709394,300.072083470327,300.049817750421,300.05325341395,300.032299796364,300.020072133792,300.020072133792,300.616011796661,0.3,5000.0,15.0,0.7
25,285.674558454522,300.04474807584,300.059080458823,300.073412841807,300.08774522479,300.055473439351,300.033646428888,300.020919123076,300.020919123076,300.616858785946,0.3,5000.0,15.0,0.7
26,285.676279276487,300.046413204379,300.060545669313,300.074678134247,300.088810599181,300.057693766587,300.034993005068,300.021766758834,300.021766758834,300.617706421703,0.3,5000.0,15.0,0.7
27,285.678013708701,300.048069228114,300.061976551677,300.07588387524,300.089791198804,300.059914123173,300.036339741284,300.022615029394,300.022615029394,300.618554692263,0.3,5000.0,15.0,0.7
28,285.679495476528,300.049776257807,300.063801417443,300.07782657708,300.091851736717,300.062134440577,300.03768642558,300.023463954492,300.023463954492,300.619403617361,0.3,5000.0,15.0,0.7
29,285.681255963699,300.051416042125,300.06516903731,300.078922032495,300.09267502768,300.064354953633,300.039033328111,300.024313462317,300.024313462317,300.620253125186,0.3,5000.0,15.0,0.7
30,285.682763433539,300.053111167112,300.06693997956,300.080768792007,300.094597604454,300.066575691369,300.040380191158,300.025163604792,300.025163604792,300.621103267661,0.3,5000.0,15.0,0.7
31,285.684544404834,300.054734468102,300.068250202618,300.081765937135,300.095281671651,300.068796375673,300.041727076345,300.02601431023,300.02601431023,300.6219539731,0.3,5000.0,15.0,0.7
32,285.68607380157,300.056417583706,300.069971321218,300.083525058731,300.097078796243,300.071017234751,300.043074121317,300.026865632351,300.026865632351,300.62280529522,0.3,5000.0,15.0,0.7
33,285.687612455058,300.058095779797,300.071671716031,300.085247652266,300.0988235885,300.073237992498,300.044421194687,300.027717531407,300.027717531407,300.623657194276,0.3,5000.0,15.0,0.7
34,285.68941808098,300.059695118495,300.072904357016,300.086113595537,300.099322834058,300.075459162267,300.045768256918,300.028569967169,300.028569967169,300.624509630038,0.3,5000.0,15.0,0.7
35,285.690973893702,300.061361143869,300.074560045921,300.087758947972,300.100957850024,300.077680148365,300.04711538059,300.029422995727,300.029422995727,300.625362658596,0.3,5000.0,15.0,0.7
36,285.692537163754,300.063022199683,300.076196964939,300.089371730195,300.102546495451,300.079901453715,300.048462648076,300.030276577804,300.030276577804,300.626216240673,0.3,5000.0,15.0,0.7
37,285.694107418638,300.064678273582,300.077815628755,300.090952983927,300.1040903391,300.082122837496,300.049809982053,300.031130706248,300.031130706248,300.627070369118,0.3,5000.0,15.0,0.7
38,285.695684200119,300.066329352373,300.07941653402,300.092503715667,300.105590897314,300.084344246272,300.051157362229,300.031985374201,300.031985374201,300.627925037071,0.3,5000.0,15.0,0.7
39,285.697267063803,300.06797542214,300.081000160072,300.094024898005,300.107049635937,300.086565704228,300.052504792084,300.032840575077,300.032840575077,300.628780237946,0.3,5000.0,15.0,0.7
40,285.698855578731,300.069616468344,300.082566969608,300.095517470872,300.108467972135,300.088787233353,300.053852274837,300.033696302544,300.033696302544,300.629635965413,0.3,5000.0,15.0,0.7
41,285.700448047269,300.071252938106,300.084119825018,300.096986711931,300.109853598844,300.091008932978,300.055199813253,300.03455255068,300.03455255068,300.630492213549,0.3,5000.0,15.0,0.7
42,285.702041896786,300.072885669327,300.085663394525,300.098441119724,300.111218844922,300.093230807924,300.056547408451,300.035409313915,300.035409313915,300.631348976784,0.3,5000.0,15.0,0.7
43,285.703640257176,300.074513418073,300.087191535872,300.099869653672,300.112547771471,300.095452735876,300.057895062448,300.036266586129,300.036266586129,300.632206248998,0.3,5000.0,15.0,0.7
44,285.705242757409,300.076136168991,300.088704641568,300.101273114146,300.113841586723,300.09767471549,300.059242777265,300.037124361865,300.037124361865,300.633064024734,0.3,5000.0,15.0,0.7
45,285.706600704119,300.077854213531,300.090693752105,300.10353329068,300.116372829254,300.099896804177,300.060590561955,300.037982669852,300.037982669852,300.633922332722,0.3,5000.0,15.0,0.7
46,285.708212452574,300.0794694261,300.092180744706,300.104892063311,300.117603381917,300.102118900663,300.061938399335,300.038841437109,300.038841437109,300.634781099978,0.3,5000.0,15.0,0.7
47,285.709827463812,300.08107961073,300.093653642229,300.106227673729,300.118801705228,300.104340974537,300.063286299419,300.039700692588,300.039700692588,300.635640355458,0.3,5000.0,15.0,0.7
48,285.71144540249,300.082684751179,300.095112794558,300.107540837937,300.119968881316,300.106562935172,300.064634262014,300.040560431523,300.040560431523,300.636500094392,0.3,5000.0,15.0,0.7
49,285.712819283068,300.084394822185,300.097067250701,300.109739679218,300.122412107734,300.108785297749,300.065982287528,300.041420683962,300.041420683962,300.637360346832,0.3,5000.0,15.0,0.7
50,285.714444794192,300.085992387463,300.098502129759,300.111011872054,300.123521614349,300.111006982134,300.067330371301,300.042281376172,300.042281376172,300.638221039041,0.3,5000.0,15.0,0.7
51,285.716072434491,300.08758487598,300.09992410903,300.11226334208,300.124602575131,300.113228071083,300.068678514014,300.043142538396,300.043142538396,300.639082201265,0.3,5000.0,15.0,0.7
52,285.717456121326,300.089289531744,300.101856190018,300.114422848291,300.126989506565,300.115450418504,300.070026718991,300.04400420158,300.04400420158,300.639943864449,0.3,5000.0,15.0,0.7
53,285.719090243145,300.090874418358,300.10325508805,300.115635757742,300.128016427434,300.117670524761,300.071374976395,300.044866291372,300.044866291372,300.640805954242,0.3,5000.0,15.0,0.7
54,285.720725746995,300.09245419455,300.104641871041,300.116829547533,300.129017224024,300.119888790643,300.072723284334,300.0457288389,300.0457288389,300.641668501769,0.3,5000.0,15.0,0.7
55,285.722118606325,300.094153463375,300.106552359718,300.118951256061,300.131350152404,300.122110685747,300.074071667103,300.046591875884,300.046591875884,300.642531538753,0.3,5000.0,15.0,0.7
56,285.723759550442,300.095725615042,300.107917205189,300.120108795336,300.132300385483,300.124325419599,300.075420077569,300.047455327434,300.047455327434,300.643394990304,0.3,5000.0,15.0,0.7
57,285.725156762733,300.097422024321,300.109816821739,300.122211619158,300.134606416577,300.126546717983,300.076768578329,300.048319261379,300.048319261379,300.644258924249,0.3,5000.0,15.0,0.7
58,285.726802593705,300.098986532505,300.111160323269,300.123334114032,300.135507904796,300.128755667038,300.078117082364,300.049183602304,300.049183602304,300.645123265173,0.3,5000.0,15.0,0.7
59,285.728448704266,300.100545879068,300.112492864528,300.124439849988,300.136386835448,300.130957083734,300.079465721385,300.050048382661,300.050048382661,300.645988045531,0.3,5000.0,15.0,0.7
60,285.729854187652,300.102236940185,300.114371999163,300.126507058141,300.138642117119,300.133176044414,300.080814413407,300.050913635341,300.050913635341,300.64685329821,0.3,5000.0,15.0,0.7
61,285.73150424852,300.103788610851,300.115684200323,300.127579789794,300.139475379266,300.135364360585,300.082163218171,300.051779284515,300.051779284515,300.647718947384,0.3,5000.0,15.0,0.7
62,285.732913653708,300.105476834492,300.117553001216,300.12962916794,300.141705334664,300.137581187348,300.083512029022,300.052645399803,300.052645399803,300.648585062673,0.3,5000.0,15.0,0.7
63,285.73456714805,300.10702081409,300.118845421846,300.130670029602,300.142494637358,300.139750162466,300.084860916687,300.053511904932,300.053511904932,300.649451567802,0.3,5000.0,15.0,0.7
64,285.735980333219,300.108706210249,300.120704071728,300.132701933206,300.144699794684,300.141964005482,300.086209845165,300.05437887026,300.05437887026,300.65031853313,0.3,5000.0,15.0,0.7
65,285.737393515466,300.110391276705,300.122562044675,300.134732812645,300.146903580614,300.144177530591,300.087558833769,300.05524625623,300.05524625623,300.651185919099,0.3,5000.0,15.0,0.7
66,285.739053586894,300.111925060916,300.123825928049,300.135726795182,300.147627662314,300.146314685431,300.088907843403,300.056114022487,300.056114022487,300.652053685356,0.3,5000.0,15.0,0.7
67,285.740470407272,300.113607315864,300.125673945072,300.137740574281,300.149807203489,300.148524053001,300.090256948072,300.056982240734,300.056982240734,300.652921903603,0.3,5000.0,15.0,0.7
68,285.742132794275,300.115133378789,300.126919263608,300.138705148428,300.150491033247,300.15062150922,300.091606002362,300.057850833371,300.057850833371,300.65379049624,0.3,5000.0,15.0,0.7
69,285.743553117189,300.116812830322,300.128757496399,300.140702162476,300.152646828554,300.152825452359,300.092955227404,300.058719872723,300.058719872723,300.654659535592,0.3,5000.0,15.0,0.7
70,285.745217353209,300.118331155182,300.129984748883,300.141638342583,300.153291936284,300.154867555832,300.094304632603,300.059589280836,300.059589280836,300.655528943705,0.3,5000.0,15.0,0.7
71,285.746641046014,300.120007810715,300.131813364366,300.143618918017,300.155424471669,300.15706452157,300.095653987111,300.060459130606,300.060459130606,300.656398793476,0.3,5000.0,15.0,0.7
72,285.74806472658,300.121684157838,300.133641357457,300.145598557076,300.157555756695,300.15926087767,300.097003401839,300.061329381861,300.061329381861,300.65726904473,0.3,5000.0,15.0,0.7
73,285.749733612277,300.123192246923,300.134842192848,300.146492138772,300.158142084697,300.161223332119,300.098352889295,300.062199993716,300.062199993716,300.658139656585,0.3,5000.0,15.0,0.7
74,285.751160545948,300.124865799692,300.136660705531,300.14845561137,300.160250517208,300.163410818933,300.099702419386,300.063071040197,300.063071040197,300.659010703066,0.3,5000.0,15.0,0.7
75,285.752587466132,300.126539050303,300.138478610137,300.150418169972,300.162357729806,300.165597583104,300.101052009543,300.063942480798,300.063942480798,300.659882143667,0.3,5000.0,15.0,0.7
76,285.754260331114,300.128036877605,300.139653741219,300.151270604834,300.162887468448,300.16745428461,300.102401545846,300.064814274338,300.064814274338,300.660753937207,0.3,5000.0,15.0,0.7
77,285.755690362313,300.129707353583,300.141462368507,300.153217383431,300.164972398356,300.169630451516,300.103751248738,300.065686495895,300.065686495895,300.661626158765,0.3,5000.0,15.0,0.7
78,285.757120376888,300.131377534583,300.143270406102,300.155163277622,300.167056149142,300.171805800984,300.105101011534,300.066559104647,300.066559104647,300.662498767516,0.3,5000.0,15.0,0.7
79,285.758796539939,300.132865096258,300.144420603723,300.155976111188,300.167531618653,300.173525670767,300.106450950522,300.067432059129,300.067432059129,300.663371721998,0.3,5000.0,15.0,0.7
80,285.760229538105,300.134532513497,300.14621953208,300.157906550663,300.169593569247,300.175687998952,300.107800848421,300.068305435396,300.068305435396,300.664245098265,0.3,5000.0,15.0,0.7
81,285.761662516984,300.13619964229,300.148017887256,300.159836132222,300.171654377189,300.177849415285,300.109150806512,300.069179192326,300.069179192326,300.665118855195,0.3,5000.0,15.0,0.7
82,285.763341333259,300.137676923571,300.149143858168,300.160610792766,300.172077727363,300.179400126672,300.110500811816,300.070053288188,300.070053288188,300.665992951057,0.3,5000.0,15.0,0.7
83,285.764777172099,300.139341297871,300.150933264545,300.162525231218,300.174117197892,300.181546252792,300.111850882732,300.070927799945,300.070927799945,300.666867462814,0.3,5000.0,15.0,0.7
84,285.766212989093,300.141005389901,300.152722113394,300.164438836887,300.17615556038,300.183691385263,300.113201013652,300.071802686193,300.071802686193,300.667742349062,0.3,5000.0,15.0,0.7
85,285.767893835195,300.142472374792,300.153824537303,300.165176699813,300.176528862324,300.185034121001,300.114551132161,300.07267790495,300.07267790495,300.668617567819,0.3,5000.0,15.0,0.7
86,285.769332391293,300.144133720749,300.155604592872,300.167075464996,300.178546337119,300.187161638458,300.115901395825,300.073553534022,300.073553534022,300.669493196891,0.3,5000.0,15.0,0.7
87,285.770770923082,300.145794790281,300.157384105779,300.168973421278,300.180562736777,300.189288095203,300.117251719752,300.074429531741,300.074429531741,300.67036919461,0.3,5000.0,15.0,0.7
88,285.772209430446,300.147455584563,300.15916307858,300.170870572597,300.182578066614,300.191413494662,300.118602103936,300.075305896226,300.075305896226,300.671245559095,0.3,5000.0,15.0,0.7
89,285.773894348659,300.148909793239,300.160234508292,300.171559223346,300.182883938399,300.192486005526,300.119952614313,300.076182585056,300.076182585056,300.672122247925,0.3,5000.0,15.0,0.7
90,285.77533547472,300.150567853467,300.16200485024,300.173441847013,300.184878843786,300.194591403719,300.121303110561,300.077059677324,300.077059677324,300.672999340193,0.3,5000.0,15.0,0.7
91,285.776776573995,300.15222564392,300.163774666062,300.175323688204,300.186872710346,300.196695694326,300.122653666853,300.077937130909,300.077937130909,300.673876793778,0.3,5000.0,15.0,0.7
92,285.778217646379,300.15388316568,300.165543958114,300.177204750548,300.188865542981,300.198798881541,300.12400428318,300.078814944053,300.078814944053,300.674754606922,0.3,5000.0,15.0,0.7
93,285.779905824946,300.155324587046,300.166585298776,300.177846010507,300.189106722238,300.199549125908,300.125354834495,300.079693073919,300.079693073919,300.675632736788,0.3,5000.0,15.0,0.7
94,285.781349398416,300.156979385615,300.16834611682,300.179712848026,300.191079579231,300.201629998322,300.126705582857,300.080571600797,300.080571600797,300.676511263666,0.3,5000.0,15.0,0.7
95,285.782792942729,300.158633920632,300.170106424277,300.181578927922,300.193051431567,300.203709733589,300.128056391482,300.081450482137,300.081450482137,300.677390145006,0.3,5000.0,15.0,0.7
96,285.784236457791,300.1602881931,300.171866223327,300.183444253555,300.195022283782,300.20578833638,300.129407260362,300.082329716292,300.082329716292,300.678269379161,0.3,5000.0,15.0,0.7
97,285.785927111754,300.161716814245,300.172878345707,300.184039877169,300.195201408631,300.206160930575,300.130758274132,300.083209260033,300.083209260033,300.679148922902,0.3,5000.0,15.0,0.7
98,285.787373013011,300.163368373349,300.17462982235,300.185891271351,300.197152720352,300.208215020982,300.132109253068,300.084089194763,300.084089194763,300.680028857632,0.3,5000.0,15.0,0.7
99,285.788818882839,300.165019674742,300.176380803045,300.187741931348,300.199103059651,300.210267960745,300.133460292015,300.084969477525,300.084969477525,300.680909140394,0.3,5000.0,15.0,0.7
100,285.790264721154,300.166670719357,300.178131289815,300.189591860274,300.201052430732,300.21231975475,300.134811390966,300.085850106774,300.085850106774,300.681789769644,0.3,5000.0,15.0,0.7
101,285.791710527865,300.168321508113,300.179881284655,300.191441061198,300.203000837741,300.214370407809,300.136162549914,300.086731080988,300.086731080988,300.682670743858,0.3,5000.0,15.0,0.7
102,285.793405203819,300.169734866057,300.180857342969,300.19197981988,300.203102296792,300.214224773704,300.137513704606,300.087612356378,300.087612356378,300.683552019247,0.3,5000.0,15.0,0.7
103,285.794853109636,300.171383122452,300.182599716715,300.193816310977,300.20503290524,300.216249499503,300.138864995165,300.088494015859,300.088494015859,300.684433678729,0.3,5000.0,15.0,0.7
