Time,TC1_tip,TC2,TC3,TC4,TC5,TC6,TC7,TC8,TC9,TC10,h,flux,abs,surf
1,288.626281033069,300.012905899472,300.009247497465,300.006626100822,300.004747819263,300.003401963155,300.002448430448,300.002448430448,300.002448430448,301.837857717511,0.3,5000.0,10.0,0.5
2,288.635839660553,300.025752341453,300.018495151673,300.013252322034,300.009495719737,300.006803984283,300.004901585214,300.004901585214,300.004901585214,301.840310872277,0.3,5000.0,10.0,0.5
3,288.643607047595,300.017450622441,300.027742889596,300.019878688002,300.014243716259,300.010206060717,300.007358670749,300.007358670749,300.007358670749,301.842767957813,0.3,5000.0,10.0,0.5
4,288.649899979093,300.015883752724,300.036990907616,300.026505176109,300.018991791942,300.013608201691,300.009819160653,300.009819160653,300.009819160653,301.845228447716,0.3,5000.0,10.0,0.5
5,288.655005568504,300.016860896528,300.046014986537,300.033131777964,300.023739920696,300.017010424744,300.012282693431,300.012282693431,300.012282693431,301.847691980494,0.3,5000.0,10.0,0.5
6,288.659799310449,300.018748374416,300.044852734042,300.0397584522,300.028488206724,300.020412697633,300.014748952892,300.014748952892,300.014748952892,301.850158239955,0.3,5000.0,10.0,0.5
7,288.664203652321,300.021112499042,300.044756055532,300.046385364559,300.033236553835,300.023815016877,300.017217733091,300.017217733091,300.017217733091,301.852627020155,0.3,5000.0,10.0,0.5
8,288.66820501204,300.023728675134,300.045636194093,300.053012296146,300.037985011414,300.027217444544,300.019688869924,300.019688869924,300.019688869924,301.855098156987,0.3,5000.0,10.0,0.5
9,288.671808862922,300.026477908896,300.047241030112,300.059639429484,300.04273352082,300.030619893705,300.022162228416,300.022162228416,300.022162228416,301.857571515479,0.3,5000.0,10.0,0.5
10,288.675020288055,300.029296977912,300.049434149798,300.066246143008,300.04748216563,300.034022470081,300.02463769508,300.02463769508,300.02463769508,301.860046982143,0.3,5000.0,10.0,0.5
11,288.678921007761,300.032122965651,300.050861760176,300.069600554701,300.052230895932,300.03742507738,300.027115055966,300.027115055966,300.027115055966,301.862524343029,0.3,5000.0,10.0,0.5
12,288.681837803163,300.034992539529,300.053492573404,300.07199260728,300.056979701232,300.040827726385,300.02959440288,300.02959440288,300.02959440288,301.865003689943,0.3,5000.0,10.0,0.5
13,288.685364554205,300.037855060634,300.055418758924,300.072982457213,300.061728608154,300.044230503565,300.032075483661,300.032075483661,300.032075483661,301.867484770724,0.3,5000.0,10.0,0.5
14,288.688463470991,300.040726961597,300.057848341811,300.074969722026,300.066477631921,300.047633314545,300.034558348693,300.034558348693,300.034558348693,301.869967635756,0.3,5000.0,10.0,0.5
15,288.691628415584,300.043594814234,300.060194858008,300.076794901781,300.07122670763,300.051036196929,300.037042879932,300.037042879932,300.037042879932,301.872452166995,0.3,5000.0,10.0,0.5
16,288.69438178157,300.046467527337,300.063017041405,300.079566555472,300.075975938872,300.054439141898,300.039529082744,300.039529082744,300.039529082744,301.874938369807,0.3,5000.0,10.0,0.5
17,288.697650135258,300.049321312462,300.065217492253,300.081113672044,300.080725195983,300.057842120747,300.042016790368,300.042016790368,300.042016790368,301.877426077431,0.3,5000.0,10.0,0.5
18,288.700503674468,300.052180180798,300.067897731595,300.083615282392,300.085474609751,300.061245228772,300.044506076553,300.044506076553,300.044506076553,301.879915363617,0.3,5000.0,10.0,0.5
19,288.703397185862,300.05503138038,300.070516898966,300.086002417552,300.090223848101,300.064648387446,300.046996841487,300.046996841487,300.046996841487,301.88240612855,0.3,5000.0,10.0,0.5
20,288.706324448962,300.057873920793,300.073079984741,300.088286048688,300.094970341869,300.068051608002,300.049489047571,300.049489047571,300.049489047571,301.884898334634,0.3,5000.0,10.0,0.5
21,288.709279760348,300.060706816087,300.075591403578,300.090475991068,300.099692005917,300.071454880725,300.051982660061,300.051982660061,300.051982660061,301.887391947124,0.3,5000.0,10.0,0.5
22,288.71225789631,300.063529093977,300.078055055681,300.092581017384,300.104262689323,300.074858242403,300.054477646724,300.054477646724,300.054477646724,301.889886933787,0.3,5000.0,10.0,0.5
23,288.714841354107,300.066373218026,300.081010360761,300.095647503497,300.108710602271,300.078261673517,300.056974036179,300.056974036179,300.056974036179,301.892383323242,0.3,5000.0,10.0,0.5
24,288.71786249165,300.069176017987,300.083385105682,300.097594193376,300.111803281071,300.081665120528,300.05947168264,300.05947168264,300.05947168264,301.894880969703,0.3,5000.0,10.0,0.5
25,288.72049079912,300.072006937268,300.086262377836,300.100517818404,300.114773258972,300.085068713051,300.061970677286,300.061970677286,300.061970677286,301.89737996435,0.3,5000.0,10.0,0.5
26,288.723137541756,300.0748323658,300.089107444569,300.103382523338,300.117657602108,300.088472325339,300.064470936595,300.064470936595,300.064470936595,301.899880223658,0.3,5000.0,10.0,0.5
27,288.72620592282,300.077604107402,300.091364548114,300.105124988826,300.118885429537,300.091876006104,300.06697237832,300.06697237832,300.06697237832,301.902381665383,0.3,5000.0,10.0,0.5
28,288.728885158649,300.080414345931,300.094141458025,300.107868570118,300.121595682212,300.095279791916,300.069475097808,300.069475097808,300.069475097808,301.904884384871,0.3,5000.0,10.0,0.5
29,288.731578232908,300.083218368636,300.096889864327,300.110561360019,300.124232855711,300.098683618563,300.071979015493,300.071979015493,300.071979015493,301.907388302556,0.3,5000.0,10.0,0.5
30,288.734283963495,300.086015985,300.099610710604,300.113205436208,300.126800161812,300.10208750784,300.074484111528,300.074484111528,300.074484111528,301.909893398591,0.3,5000.0,10.0,0.5
31,288.73700121608,300.088807006676,300.102304890876,300.115802775076,300.129300659275,300.105491471245,300.076990367068,300.076990367068,300.076990367068,301.912399654131,0.3,5000.0,10.0,0.5
32,288.739728902113,300.091591247804,300.104973252517,300.11835525723,300.131737261944,300.108895507756,300.079497764189,300.079497764189,300.079497764189,301.914907051252,0.3,5000.0,10.0,0.5
33,288.74246249782,300.094369180791,300.107621889677,300.120874598563,300.134127307449,300.112299603293,300.082006286336,300.082006286336,300.082006286336,301.917415573399,0.3,5000.0,10.0,0.5
34,288.745199781773,300.097141009435,300.110253736688,300.123366463941,300.136479191194,300.115703738502,300.084515917408,300.084515917408,300.084515917408,301.919925204472,0.3,5000.0,10.0,0.5
35,288.747944705904,300.099905703532,300.112862193528,300.125818683525,300.138775173521,300.119107998318,300.087026641103,300.087026641103,300.087026641103,301.922435928166,0.3,5000.0,10.0,0.5
36,288.750696371451,300.102663095913,300.115447931496,300.128232767078,300.141017602661,300.122512280362,300.089538442521,300.089538442521,300.089538442521,301.924947729584,0.3,5000.0,10.0,0.5
37,288.75307623441,300.105502784735,300.118624377793,300.131745970851,300.144867563909,300.125916641475,300.092051365148,300.092051365148,300.092051365148,301.927460652211,0.3,5000.0,10.0,0.5
38,288.755843937268,300.108249877282,300.121170682457,300.134091487633,300.147012292809,300.129321108178,300.094565279436,300.094565279436,300.094565279436,301.929974566499,0.3,5000.0,10.0,0.5
39,288.758616270354,300.110989290129,300.123695875494,300.136402460859,300.149109046223,300.132725605868,300.097080230299,300.097080230299,300.097080230299,301.932489517362,0.3,5000.0,10.0,0.5
40,288.761392452107,300.113720865657,300.126200515343,300.13868016503,300.151159814716,300.136130157618,300.0995962051,300.0995962051,300.0995962051,301.935005492163,0.3,5000.0,10.0,0.5
41,288.763801738073,300.116551400613,300.129324750243,300.142098099872,300.154871449502,300.139534794611,300.102113249007,300.102113249007,300.102113249007,301.93752253607,0.3,5000.0,10.0,0.5
42,288.766589951198,300.119271996081,300.131793082953,300.144314169825,300.156835256698,300.142939434269,300.104631235182,300.104631235182,300.104631235182,301.940040522245,0.3,5000.0,10.0,0.5
43,288.769008338696,300.122099065778,300.134899856351,300.147700646925,300.160501437498,300.14634418557,300.107150267619,300.107150267619,300.107150267619,301.942559554682,0.3,5000.0,10.0,0.5
44,288.771807083992,300.124808431011,300.137333060963,300.149857690915,300.162382320867,300.149748785105,300.109670219861,300.109670219861,300.109670219861,301.945079506924,0.3,5000.0,10.0,0.5
45,288.774606762999,300.12750940327,300.139747861773,300.151986320277,300.164224778781,300.153153230905,300.112191139409,300.112191139409,300.112191139409,301.947600426472,0.3,5000.0,10.0,0.5
46,288.777042005577,300.130329888882,300.142821954642,300.155314020403,300.167806086163,300.156558065669,300.11471307312,300.11471307312,300.11471307312,301.950122360183,0.3,5000.0,10.0,0.5
47,288.779849771665,300.133019190182,300.145203482696,300.15738777521,300.169572067723,300.159961718564,300.117235896497,300.117235896497,300.117235896497,301.95264518356,0.3,5000.0,10.0,0.5
48,288.782292942226,300.13583609129,300.148261195265,300.16068629924,300.173111403214,300.163366484865,300.119759714625,300.119759714624,300.119759714624,301.955169001688,0.3,5000.0,10.0,0.5
49,288.785107462836,300.138513484598,300.150610468244,300.16270745189,300.174804435536,300.166768158406,300.122284403645,300.122284403645,300.122284403645,301.957693690708,0.3,5000.0,10.0,0.5
50,288.787558188581,300.141326763603,300.153652144562,300.16597752552,300.178302906479,300.17017260763,300.124810069125,300.124810069125,300.124810069125,301.960219356188,0.3,5000.0,10.0,0.5
51,288.790378185957,300.143992016811,300.15597012833,300.167948239848,300.179926351366,300.173569690172,300.127336587945,300.127336587945,300.127336587945,301.962745875008,0.3,5000.0,10.0,0.5
52,288.792836104982,300.146801635483,300.158996098814,300.171190562145,300.183385025476,300.176973363643,300.129864065941,300.129864065941,300.129864065941,301.965273353004,0.3,5000.0,10.0,0.5
53,288.795660354003,300.149454521687,300.161283710444,300.173112899201,300.184942087958,300.180360708996,300.132392380831,300.132392380831,300.132392380831,301.967801667894,0.3,5000.0,10.0,0.5
54,288.798125114925,300.152260441334,300.164294292657,300.176328143981,300.188361995304,300.183762829421,300.134921638517,300.134921638517,300.134921638517,301.97033092558,0.3,5000.0,10.0,0.5
55,288.800589967701,300.155065943429,300.167303906479,300.179541869529,300.19177983258,300.187164787784,300.137451774575,300.137451774575,300.137451774575,301.972861061639,0.3,5000.0,10.0,0.5
56,288.803423706754,300.157702918731,300.169547893923,300.181392869114,300.193237844306,300.190530322089,300.139982724039,300.139982724039,300.139982724039,301.975392011102,0.3,5000.0,10.0,0.5
57,288.805895061091,300.160504685186,300.17254242883,300.184580172473,300.196617916117,300.193929307858,300.142514593911,300.142514593911,300.142514593911,301.977923880974,0.3,5000.0,10.0,0.5
58,288.808730437436,300.163128805029,300.174757992354,300.186387179679,300.198016367004,300.197257688725,300.145047263093,300.145047263093,300.145047263093,301.980456550156,0.3,5000.0,10.0,0.5
59,288.811207953149,300.165926800135,300.177737759407,300.189548718679,300.201359677951,300.200651689403,300.147580838222,300.147580838222,300.147580838222,301.982990125286,0.3,5000.0,10.0,0.5
60,288.813685541029,300.168724394407,300.180716614892,300.192708835377,300.204701055863,300.204045220698,300.150115255965,300.150115255965,300.150115255965,301.985524543028,0.3,5000.0,10.0,0.5
61,288.816527246076,300.171332041138,300.182890968834,300.19444989653,300.206008824225,300.20730204521,300.152650452659,300.152650452659,300.152650452659,301.988059739722,0.3,5000.0,10.0,0.5
62,288.81901066461,300.174125830795,300.185855361872,300.197584892949,300.209314424025,300.210687608157,300.155186535502,300.155186535502,300.155186535502,301.990595822565,0.3,5000.0,10.0,0.5
63,288.821494145329,300.176919228458,300.188818872902,300.200718517346,300.212618161789,300.214072492037,300.157723441613,300.157723441613,300.157723441613,301.993132728676,0.3,5000.0,10.0,0.5
64,288.82434053945,300.179510109112,300.190953266767,300.202396424423,300.213839582079,300.217209579643,300.160261107899,300.160261107899,300.160261107899,301.995670394962,0.3,5000.0,10.0,0.5
65,288.826829530072,300.182299668095,300.193902607823,300.205505547551,300.21710848728,300.220582394501,300.162799641838,300.162799641838,300.162799641838,301.998208928901,0.3,5000.0,10.0,0.5
66,288.829318573383,300.185088843264,300.19685109452,300.208613345776,300.220375597033,300.223954294304,300.165338981058,300.165338981058,300.165338981058,302.000748268121,0.3,5000.0,10.0,0.5
67,288.831807668849,300.187877636606,300.199798731571,300.211719826537,300.223640921502,300.227325273272,300.167879119837,300.167879119837,300.167879119837,302.0032884069,0.3,5000.0,10.0,0.5
68,288.834662328337,300.190447973495,300.201881310538,300.213314647581,300.224747984624,300.230257408544,300.170419995416,300.170419995416,300.170419995416,302.005829282479,0.3,5000.0,10.0,0.5
69,288.837156614042,300.193232899114,300.204815079239,300.216397259365,300.22797943949,300.233611121798,300.172961716247,300.172961716247,300.172961716247,302.00837100331,0.3,5000.0,10.0,0.5
70,288.839650942903,300.196017450355,300.207748023871,300.219478597386,300.231209170901,300.236963680931,300.175504220228,300.175504220228,300.175504220228,302.010913507291,0.3,5000.0,10.0,0.5
71,288.842145314444,300.198801629015,300.210680148681,300.222558668346,300.234437188012,300.240315065062,300.178047502123,300.178047502123,300.178047502123,302.013456789186,0.3,5000.0,10.0,0.5
72,288.845006142075,300.201351061515,300.212712540134,300.224074018753,300.235435497371,300.242936811187,300.180591499575,300.180591499575,300.180591499575,302.016000786638,0.3,5000.0,10.0,0.5
73,288.847505394221,300.204131342155,300.215631084283,300.227130826412,300.23863056854,300.246264518446,300.183136321652,300.183136321652,300.183136321652,302.018545608715,0.3,5000.0,10.0,0.5
74,288.850004680502,300.206911257031,300.218548832372,300.230186407714,300.241823983056,300.249590847062,300.185681906594,300.185681906594,300.185681906594,302.021091193657,0.3,5000.0,10.0,0.5
75,288.852504000489,300.209690807776,300.221465788259,300.233240768742,300.245015749225,300.252915797927,300.188228249589,300.188228249589,300.188228249589,302.023637536652,0.3,5000.0,10.0,0.5
76,288.855368989416,300.212218982767,300.223449532855,300.234680082943,300.245910633031,300.255094108293,300.190775288747,300.190775288747,300.190775288747,302.02618457581,0.3,5000.0,10.0,0.5
77,288.857872889998,300.214994604239,300.226353182906,300.237711761574,300.249070340241,300.258388706252,300.193323133431,300.193323133431,300.193323133431,302.028732420494,0.3,5000.0,10.0,0.5
78,288.860376816156,300.217769867847,300.229256062908,300.240742257968,300.252228453029,300.261681744681,300.195871722301,300.1958717223,300.1958717223,302.031281009364,0.3,5000.0,10.0,0.5
79,288.862880767509,300.220544775086,300.232158176379,300.243771577672,300.255384978965,300.264973173474,300.198421050913,300.198421050913,300.198421050913,302.033830337976,0.3,5000.0,10.0,0.5
80,288.865384743676,300.22331932742,300.235059526775,300.24679972613,300.258539925486,300.268262304308,300.200971114908,300.200971114908,300.200971114908,302.036380401971,0.3,5000.0,10.0,0.5
81,288.868256238682,300.225822293646,300.236983804265,300.248145314885,300.259306825505,300.230515735105,300.203521852641,300.203521852641,300.203521852641,302.038931139704,0.3,5000.0,10.0,0.5
82,288.87076449731,300.228592889061,300.239872128989,300.251151368917,300.262430608845,300.243653273357,300.2060733743,300.2060733743,300.2060733743,302.041482661363,0.3,5000.0,10.0,0.5
83,288.873272773037,300.231363135261,300.242759711127,300.254156286993,300.265552862859,300.256882526416,300.208625618748,300.208625618748,300.208625618748,302.044034905812,0.3,5000.0,10.0,0.5
84,288.87578007251,300.234133794091,300.245649248994,300.257164703898,300.268680158801,300.268431720114,300.211178582095,300.211178582095,300.211178582095,302.046587869158,0.3,5000.0,10.0,0.5
85,288.878284917088,300.236905999546,300.248544759046,300.260183518547,300.271822278047,300.275731031149,300.213732260593,300.213732260593,300.213732260593,302.049141547657,0.3,5000.0,10.0,0.5
86,288.881157435616,300.239386145747,300.250420708891,300.261455272035,300.272489835179,300.283524398323,300.216286592382,300.216286592382,300.216286592382,302.051695879445,0.3,5000.0,10.0,0.5
87,288.883666331999,300.242154518302,300.253303710536,300.26445290277,300.275602095004,300.286751287238,300.218841688418,300.218841688418,300.218841688418,302.054250975482,0.3,5000.0,10.0,0.5
88,288.886175170341,300.244922605843,300.25618618729,300.267449768736,300.278713350183,300.28997693163,300.221397487723,300.221397487723,300.221397487723,302.056806774786,0.3,5000.0,10.0,0.5
89,288.888683950544,300.247690409468,300.259068141535,300.270445873601,300.281823605667,300.293201337733,300.223953986591,300.223953986591,300.223953986591,302.059363273655,0.3,5000.0,10.0,0.5
90,288.891192672509,300.250457930256,300.261949575612,300.273441220968,300.284932866324,300.29642451168,300.226511181383,300.226511181383,300.226511181383,302.061920468446,0.3,5000.0,10.0,0.5
91,288.894067888771,300.252912584525,300.263769781784,300.274626979042,300.285484176301,300.29634137356,300.229069010335,300.229069010335,300.229069010335,302.064478297399,0.3,5000.0,10.0,0.5
92,288.896580407954,300.255676246856,300.266638942668,300.27760163848,300.288564334292,300.299527030104,300.231627585848,300.231627585848,300.231627585848,302.067036872911,0.3,5000.0,10.0,0.5
93,288.899092866698,300.258439631401,300.269507596313,300.280575561224,300.291643526136,300.302711491047,300.234186846704,300.234186846704,300.234186846704,302.069596133768,0.3,5000.0,10.0,0.5
94,288.901605265241,300.261202738871,300.272375743919,300.283548748968,300.294721754016,300.305894759065,300.236746789496,300.236746789496,300.236746789496,302.072156076559,0.3,5000.0,10.0,0.5
95,288.904117602971,300.263965570709,300.275243389164,300.286521207619,300.297799026074,300.309076844529,300.239307410869,300.239307410869,300.239307410869,302.074716697932,0.3,5000.0,10.0,0.5
96,288.906629879809,300.266728127878,300.278110534129,300.28949294038,300.30087534663,300.312257752881,300.24186870752,300.24186870752,300.24186870752,302.077277994584,0.3,5000.0,10.0,0.5
97,288.909142095671,300.269490411326,300.280977180863,300.292463950401,300.303950719938,300.315437489475,300.244430676201,300.244430676201,300.244430676201,302.079839963264,0.3,5000.0,10.0,0.5
98,288.912025127658,300.271911980159,300.282720156852,300.293528333546,300.30433651024,300.315144686933,300.246993252235,300.246993252235,300.246993252235,302.082402539298,0.3,5000.0,10.0,0.5
99,288.914540889004,300.274670386539,300.285574776739,300.29647916694,300.30738355714,300.31828794734,300.249556554687,300.249556554687,300.249556554687,302.08496584175,0.3,5000.0,10.0,0.5
100,288.917056587066,300.277428523996,300.288428910926,300.299429297857,300.310429684787,300.321430071717,300.252120519673,300.252120519673,300.252120519673,302.087529806736,0.3,5000.0,10.0,0.5
101,288.919572221773,300.28018639341,300.291282561312,300.302378729213,300.313474897115,300.324571065017,300.254685144132,300.254685144132,300.254685144132,302.090094431196,0.3,5000.0,10.0,0.5
102,288.922087793057,300.282943995647,300.294135729765,300.305327463884,300.316519198002,300.327710932121,300.25725042505,300.25725042505,300.25725042505,302.092659712113,0.3,5000.0,10.0,0.5
103,288.924603300847,300.28570133156,300.296988418129,300.308275504698,300.319562591267,300.330849677836,300.259816359455,300.259816359455,300.259816359455,302.095225646518,0.3,5000.0,10.0,0.5
