Time,TC1_tip,TC2,TC3,TC4,TC5,TC6,TC7,TC8,TC9,TC10,h,flux,abs,surf
1,282.887569528725,300.018496255123,300.009496362784,300.004875589489,300.002503187217,300.001285159921,300.000659834219,300.00033877302,300.000245120783,300.193740971699,0.3,5000.0,20.0,0.9
2,282.894077382112,300.011622383747,300.018992959635,300.009751372356,300.005006546814,300.002570456566,300.001319719722,300.000677567543,300.000491043345,300.193986894262,0.3,5000.0,20.0,0.9
3,282.89774011575,300.00604342012,300.028490928057,300.014627471163,300.007510130579,300.003855779674,300.001979645085,300.001016379337,300.000737727329,300.194233578246,0.3,5000.0,20.0,0.9
4,282.900096785167,300.003798102661,300.031435836384,300.019504096661,300.010013852807,300.005141244978,300.002639618519,300.001355221904,300.000985089173,300.19448094009,0.3,5000.0,20.0,0.9
5,282.901764143887,300.002704378322,300.027259140126,300.024381313189,300.012517678211,300.006426803475,300.003299652162,300.001694085369,300.001233057795,300.194728908711,0.3,5000.0,20.0,0.9
6,282.902970495673,300.002131879765,300.024687529998,300.029258503428,300.015021710542,300.007712430762,300.003959716857,300.002032992266,300.001481579402,300.194977430319,0.3,5000.0,20.0,0.9
7,282.903943366798,300.00181481856,300.022911252344,300.034136343936,300.017526093835,300.008998144642,300.00461983774,300.002371913126,300.001730609342,300.195226460258,0.3,5000.0,20.0,0.9
8,282.904897972591,300.00163008986,300.021428376874,300.03895278056,300.020030648538,300.010284074794,300.00528002117,300.002710852928,300.001980109213,300.195475960129,0.3,5000.0,20.0,0.9
9,282.905774262016,300.001542277742,300.020235398525,300.038928519308,300.022535280083,300.011570058056,300.005940263115,300.003049814343,300.002230053018,300.195725903934,0.3,5000.0,20.0,0.9
10,282.906285153772,300.001540162063,300.01964086476,300.037741567458,300.025040146344,300.012856065665,300.006600552428,300.003388818819,300.002480427337,300.195976278254,0.3,5000.0,20.0,0.9
11,282.906919257603,300.001566532363,300.018962612747,300.03635869313,300.027545161766,300.01414223783,300.00726088665,300.003727844204,300.002731197475,300.196227048392,0.3,5000.0,20.0,0.9
12,282.907418325035,300.001627516339,300.018511579231,300.035395642124,300.030050684582,300.015428426415,300.007921267252,300.004066904521,300.002982354849,300.196478205766,0.3,5000.0,20.0,0.9
13,282.908002449385,300.00170723542,300.018000839663,300.034294443905,300.032556148439,300.016714820926,300.008581700029,300.004405986104,300.003233876652,300.196729727568,0.3,5000.0,20.0,0.9
14,282.908432831994,300.00180683943,300.017708619443,300.033610399456,300.035061844331,300.018001322018,300.009242130216,300.004745101671,300.003485758543,300.19698160946,0.3,5000.0,20.0,0.9
15,282.908924345209,300.001918479528,300.017370548112,300.032822616696,300.037567470044,300.019287794361,300.009902724314,300.00508423862,300.003737980418,300.197233831335,0.3,5000.0,20.0,0.9
16,282.909255644516,300.002040049115,300.017237987362,300.032435925608,300.040072033303,300.020574420108,300.010563308528,300.005423399249,300.003990540668,300.197486391585,0.3,5000.0,20.0,0.9
17,282.90963490203,300.002169187147,300.017065599096,300.031962011046,300.042545750125,300.021861288818,300.011223972138,300.005762576553,300.004243421033,300.197739271949,0.3,5000.0,20.0,0.9
18,282.910053983559,300.002305508117,300.016861986638,300.031418465159,300.044702609899,300.02314820617,300.011884684132,300.006101776424,300.004496612785,300.197992463701,0.3,5000.0,20.0,0.9
19,282.910307641562,300.00244365587,300.016853229894,300.031262803918,300.045672377943,300.024435154653,300.012545441305,300.00644102041,300.004750117108,300.198245968025,0.3,5000.0,20.0,0.9
20,282.910595347737,300.002586227754,300.016814244376,300.031042260997,300.045270277619,300.025722135403,300.013206199474,300.006780311199,300.005003917599,300.198499768516,0.3,5000.0,20.0,0.9
21,282.910912664493,300.002733003009,300.016749702106,300.030766401203,300.0447831003,300.027009267871,300.01386707493,300.007119607596,300.005258007414,300.198753858331,0.3,5000.0,20.0,0.9
22,282.911255578906,300.002883726809,300.016663714441,300.030443702073,300.044223689705,300.028296596747,300.014528002809,300.007458915923,300.005512380203,300.19900823112,0.3,5000.0,20.0,0.9
23,282.911620463574,300.003038119929,300.016559897177,300.030081674425,300.043603451673,300.029584068921,300.015188943113,300.007798242601,300.005767030054,300.199262880971,0.3,5000.0,20.0,0.9
24,282.911818249434,300.003187801266,300.016639416474,300.030091031682,300.043542646889,300.030871547245,300.015849952713,300.008137645446,300.006021960952,300.199517811868,0.3,5000.0,20.0,0.9
25,282.912216947587,300.00334802392,300.016508533418,300.029669042915,300.042829552413,300.03215905158,300.016510993675,300.008477055246,300.006277148963,300.19977299988,0.3,5000.0,20.0,0.9
26,282.912447172322,300.003502166291,300.016559758902,300.029617351512,300.042674944123,300.033446814248,300.017172079011,300.008816482775,300.006532608122,300.200028459038,0.3,5000.0,20.0,0.9
27,282.912694256315,300.003658250855,300.016595505076,300.029532759297,300.042470013518,300.034734561454,300.01783329432,300.009155902457,300.006788324244,300.20028417516,0.3,5000.0,20.0,0.9
28,282.912956538829,300.003816150865,300.016617429607,300.02941870835,300.042219987092,300.036022350607,300.018494563279,300.009495411891,300.007044292979,300.200540143896,0.3,5000.0,20.0,0.9
29,282.913232473175,300.003975735494,300.016627050018,300.029278364543,300.041929679067,300.037310439234,300.019155837737,300.009834939532,300.007300510216,300.200796361132,0.3,5000.0,20.0,0.9
30,282.913520621662,300.004136871372,300.016625752688,300.029114634004,300.04160351532,300.038598528622,300.0198170757,300.01017447183,300.007556972054,300.20105282297,0.3,5000.0,20.0,0.9
31,282.913645954147,300.00428939179,300.016794811856,300.029300231922,300.041805651989,300.039886668246,300.020478551425,300.010514012053,300.007813684581,300.201309535498,0.3,5000.0,20.0,0.9
32,282.91395706655,300.004453122299,300.016772325636,300.029091528973,300.041410732311,300.041174555763,300.021139929676,300.010853624889,300.008070624705,300.201566475622,0.3,5000.0,20.0,0.9
33,282.914105537718,300.004607731618,300.016918953389,300.029230175161,300.041541396933,300.042461954508,300.021801434466,300.011193242262,300.008327808697,300.201823659614,0.3,5000.0,20.0,0.9
34,282.91443548955,300.004773666275,300.016879239371,300.028984812467,300.041090385563,300.043745854731,300.022463016005,300.011532871443,300.00858521365,300.202081064567,0.3,5000.0,20.0,0.9
35,282.914603814548,300.004930092804,300.017006671298,300.029083249791,300.041159828284,300.045025449572,300.023124582862,300.011872557661,300.008842856242,300.202338707159,0.3,5000.0,20.0,0.9
36,282.914781173128,300.005087273693,300.017125219895,300.029163166097,300.041201112299,300.046294038408,300.023786183096,300.012212267494,300.009100723681,300.202596574597,0.3,5000.0,20.0,0.9
37,282.914967002396,300.005245162563,300.017235439986,300.029225717409,300.041215994832,300.047540757727,300.024447852805,300.01255194463,300.009358813145,300.202854664062,0.3,5000.0,20.0,0.9
38,282.915327342673,300.005414420748,300.017167460089,300.028920499429,300.04067353877,300.048689067539,300.025109637842,300.012891704908,300.009617111955,300.203112962872,0.3,5000.0,20.0,0.9
39,282.915527741204,300.005573625834,300.017263558161,300.028953490489,300.040643422816,300.049776766384,300.025771441255,300.013231529098,300.00987563745,300.203371488366,0.3,5000.0,20.0,0.9
40,282.915734964665,300.00573337848,300.017352898797,300.028972419115,300.040591939432,300.050717783752,300.026433281271,300.013571332271,300.010134377182,300.203630228099,0.3,5000.0,20.0,0.9
41,282.915948551874,300.005893632081,300.017435918852,300.028978205623,300.040520492395,300.051441303871,300.027095157371,300.013911120815,300.010393328752,300.203889179668,0.3,5000.0,20.0,0.9
42,282.91616806259,300.006054340244,300.017513031429,300.028971722615,300.040430413801,300.051842401139,300.027757168811,300.014251027775,300.010652489847,300.204148340763,0.3,5000.0,20.0,0.9
43,282.916231399111,300.006204735869,300.017749335897,300.029293935925,300.040838535953,300.052383135981,300.028419209468,300.014590889901,300.010911868277,300.204407719194,0.3,5000.0,20.0,0.9
44,282.916462758996,300.006366267939,300.017814455679,300.029262643419,300.04071083116,300.0521590189,300.029081301092,300.014930822006,300.011171441816,300.204667292733,0.3,5000.0,20.0,0.9
45,282.916698929532,300.006528136126,300.017874709824,300.029221283522,300.04056785722,300.051914430918,300.029743391817,300.015270787734,300.011431218422,300.204927069339,0.3,5000.0,20.0,0.9
46,282.91693952844,300.006690294589,300.017930445613,300.029170596637,300.040410747661,300.051650898684,300.030405511937,300.015610755897,300.01169119609,300.205187047007,0.3,5000.0,20.0,0.9
47,282.917025526592,300.006842097969,300.018143468133,300.029444838297,300.040746208461,300.052047578625,300.031067792094,300.015950744487,300.011951382952,300.205447233869,0.3,5000.0,20.0,0.9
48,282.91727546577,300.007004819026,300.018189571691,300.029374324356,300.04055907702,300.051743829685,300.031730068715,300.016290784229,300.012211756973,300.20570760789,0.3,5000.0,20.0,0.9
49,282.917528875164,300.007167714678,300.018232025709,300.029296336741,300.040360647773,300.051424958804,300.032392374245,300.016630835804,300.012472326418,300.205968177335,0.3,5000.0,20.0,0.9
50,282.917629167657,300.007320329308,300.01843020473,300.029540080152,300.040649955574,300.051759830997,300.03305479683,300.016970895906,300.012733099602,300.206228950518,0.3,5000.0,20.0,0.9
51,282.917890311607,300.007483603871,300.018464503467,300.029445403063,300.04042630266,300.051407202256,300.033717146488,300.01731101934,300.012994054639,300.206489905556,0.3,5000.0,20.0,0.9
52,282.917998920104,300.007636646811,300.018653957179,300.029671267547,300.040688577914,300.051705888282,300.0343797122,300.017651133278,300.013255210054,300.206751060971,0.3,5000.0,20.0,0.9
53,282.918266864175,300.00780018972,300.01868095258,300.029561715439,300.040442478299,300.051323241158,300.03504218102,300.017991276871,300.013516544039,300.207012394956,0.3,5000.0,20.0,0.9
54,282.918383122043,300.007953595417,300.018862316183,300.02977103695,300.040679757716,300.051588478482,300.035704846465,300.018331517686,300.013778075224,300.207273926141,0.3,5000.0,20.0,0.9
55,282.918656996652,300.008117298564,300.01888279033,300.029648282096,300.040413773862,300.051179265628,300.036367467854,300.018671734134,300.014039781892,300.207535632809,0.3,5000.0,20.0,0.9
56,282.918780278364,300.008271002252,300.019056653163,300.029842304075,300.040627954986,300.051413605897,300.037030162179,300.019011944603,300.014301682746,300.207797533662,0.3,5000.0,20.0,0.9
57,282.918906690487,300.008424832297,300.01922715975,300.030029487203,300.040831814656,300.051634142109,300.037692892952,300.019352254237,300.014563766262,300.208059617179,0.3,5000.0,20.0,0.9
58,282.919188993391,300.008588698305,300.019238232623,300.029887766941,300.040537301259,300.051186835578,300.038355676867,300.019692554424,300.014826020927,300.208321871844,0.3,5000.0,20.0,0.9
59,282.919321612379,300.008742739557,300.019402003635,300.030061267713,300.040720531791,300.051379795869,300.039018556396,300.02003285209,300.015088465568,300.208584316484,0.3,5000.0,20.0,0.9
60,282.919457044011,300.008896875968,300.019562721286,300.030228566605,300.040894411923,300.051560257241,300.039681438339,300.020373243618,300.015351088763,300.208846939679,0.3,5000.0,20.0,0.9
61,282.919595202546,300.009051099423,300.019720467927,300.030389836431,300.041059204935,300.051728573439,300.040344359661,300.02071358784,300.015613889212,300.209109740129,0.3,5000.0,20.0,0.9
62,282.919885323574,300.009214857586,300.019722287346,300.030229717107,300.040737146867,300.051244576627,300.041007236472,300.021053988881,300.015876855669,300.209372706586,0.3,5000.0,20.0,0.9
63,282.920026750203,300.009369061333,300.01987621812,300.030383374906,300.040890531692,300.051397688478,300.04167032224,300.02139448508,300.016140006976,300.209635857892,0.3,5000.0,20.0,0.9
64,282.920170621744,300.00952332333,300.020027444386,300.030531565441,300.041035686496,300.051539807552,300.042333305266,300.021734918,300.016403331825,300.209899182742,0.3,5000.0,20.0,0.9
65,282.920316862217,300.009677635853,300.020176038025,300.030674440196,300.041172842367,300.051671244538,300.042996242765,300.022075449225,300.016666829039,300.210162679956,0.3,5000.0,20.0,0.9
66,282.920465397276,300.00983199121,300.020322069094,300.030812146977,300.041302224861,300.051792302744,300.043659277986,300.02241596222,300.016930497466,300.210426348383,0.3,5000.0,20.0,0.9
67,282.920765013146,300.009995430252,300.020312263353,300.030629096454,300.040945929555,300.051262762657,300.044321706181,300.022756530117,300.017194325917,300.210690176834,0.3,5000.0,20.0,0.9
68,282.920917811197,300.010149773449,300.020453344778,300.030756916106,300.041060487434,300.051364058763,300.044984305607,300.023097071216,300.01745833342,300.210954184336,0.3,5000.0,20.0,0.9
69,282.921072656305,300.010304130944,300.020592090855,300.030880050766,300.041168010676,300.051455970587,300.045646683721,300.023437728579,300.017722508839,300.211218359755,0.3,5000.0,20.0,0.9
70,282.921229481292,300.010458495287,300.020728563861,300.030998632435,300.041268701009,300.051538769583,300.046308655357,300.023778346762,300.017986851123,300.211482702039,0.3,5000.0,20.0,0.9
71,282.921388220432,300.010612859078,300.020862824498,300.031112789917,300.041362755337,300.051612720756,300.046970079918,300.02411902042,300.018251359244,300.21174721016,0.3,5000.0,20.0,0.9
72,282.921548809419,300.010767214972,300.020994931933,300.031222648893,300.041450365854,300.051678082815,300.047630768164,300.02445973619,300.018516032195,300.212011883112,0.3,5000.0,20.0,0.9
73,282.921711185343,300.010921555677,300.021124943838,300.031328331998,300.041531720158,300.051735108319,300.048290470355,300.024800423533,300.018780868992,300.212276719909,0.3,5000.0,20.0,0.9
74,282.921875286662,300.011075873962,300.021252916426,300.03142995889,300.041607001354,300.051784043818,300.048948862483,300.025141209851,300.019045868671,300.212541719588,0.3,5000.0,20.0,0.9
75,282.922041053167,300.011230162655,300.021378904491,300.031527646326,300.041676388162,300.051825129998,300.049605530579,300.025482002044,300.019311030286,300.212806881202,0.3,5000.0,20.0,0.9
76,282.922208426013,300.011384414651,300.021502961392,300.031621508134,300.041740054875,300.051858601617,300.050259953223,300.025822776228,300.019576352912,300.213072203828,0.3,5000.0,20.0,0.9
77,282.922377347937,300.011538622925,300.021625138824,300.031711654723,300.041798170622,300.051884686521,300.050911482511,300.026163650178,300.019841835641,300.213337686558,0.3,5000.0,20.0,0.9
78,282.922547762228,300.011692780482,300.021745487905,300.031798195328,300.041850902752,300.051903610175,300.051559323962,300.026504534094,300.020107477586,300.213603328503,0.3,5000.0,20.0,0.9
79,282.922719613771,300.011846880416,300.021864058091,300.031881235767,300.041898413442,300.051915591118,300.052202515734,300.026845409661,300.020373277873,300.21386912879,0.3,5000.0,20.0,0.9
80,282.922892848665,300.012000915891,300.021980897586,300.031960879281,300.041940860976,300.05192084267,300.052839907998,300.027186340554,300.020639235649,300.214135086566,0.3,5000.0,20.0,0.9
81,282.923067414192,300.012154880144,300.022096053372,300.032037226599,300.041978399826,300.051919573054,300.053470143174,300.027527327721,300.020905350074,300.214401200991,0.3,5000.0,20.0,0.9
82,282.923243258729,300.012308766485,300.022209571313,300.032110376142,300.04201118097,300.051911985799,300.054091628653,300.027868315022,300.021171620325,300.214667471242,0.3,5000.0,20.0,0.9
83,282.923276789814,300.012455351662,300.022472465998,300.032489580334,300.042506694671,300.052523809007,300.054748096385,300.028209337722,300.021438055501,300.214933906418,0.3,5000.0,20.0,0.9
84,282.923455585612,300.012609217691,300.022582532836,300.032555847981,300.042529163126,300.052502478271,300.055357264846,300.028550359694,300.021704634974,300.215200485891,0.3,5000.0,20.0,0.9
85,282.923635533228,300.012762990506,300.022691077277,300.032619164049,300.042547250821,300.052475337593,300.055953359268,300.028891444599,300.021971367893,300.21546721881,0.3,5000.0,20.0,0.9
86,282.923816584855,300.012916663642,300.022798141246,300.03267961885,300.042561096455,300.052442574059,300.056533966749,300.029232579493,300.022238253493,300.21573410441,0.3,5000.0,20.0,0.9
87,282.923998693751,300.013070230713,300.022903765598,300.032737300483,300.042570835367,300.052404370252,300.057095749496,300.029573725345,300.022505291024,300.21600114194,0.3,5000.0,20.0,0.9
88,282.92418181422,300.013223685416,300.02300799015,300.032792294883,300.042576599617,300.05236090435,300.057636019753,300.029914886145,300.022772479746,300.216268330663,0.3,5000.0,20.0,0.9
89,282.924223721725,300.013370514933,300.023261711155,300.033152907377,300.043044103599,300.052935299821,300.058281723875,300.030256090046,300.023039828772,300.216535679688,0.3,5000.0,20.0,0.9
90,282.92440940287,300.013523905583,300.023362845796,300.033201786009,300.043040726222,300.052879666435,300.058793372498,300.030597300177,300.023307317686,300.216803168602,0.3,5000.0,20.0,0.9
91,282.924595981818,300.013677169302,300.023462682098,300.033248194895,300.043033707692,300.052819220489,300.059275509357,300.030938553717,300.023574955652,300.217070806569,0.3,5000.0,20.0,0.9
92,282.92478341625,300.013830300031,300.023561256484,300.033292212936,300.043023169389,300.052754125842,300.059723121556,300.031279869652,300.023842741982,300.217338592899,0.3,5000.0,20.0,0.9
93,282.924971664804,300.013983291797,300.023658604437,300.033333917078,300.043009229718,300.052684542358,300.060132339681,300.031621206961,300.024110675999,300.217606526916,0.3,5000.0,20.0,0.9
94,282.925019805984,300.014130273965,300.023905438394,300.033680602823,300.043455767252,300.053230931681,300.060763358647,300.031962564163,300.024378766795,300.217874617711,0.3,5000.0,20.0,0.9
95,282.925210322215,300.014283167465,300.02399996451,300.033716761555,300.0434335586,300.053150355645,300.061123162052,300.032303956948,300.024646994158,300.218142845075,0.3,5000.0,20.0,0.9
96,282.925401548674,300.014435908093,300.024093355593,300.033750803093,300.043408250593,300.053065698093,300.061432820063,300.032645376293,300.02491536724,300.218411218157,0.3,5000.0,20.0,0.9
97,282.925593447111,300.014588490134,300.024185644071,300.033782798009,300.043379951946,300.052977105884,300.061686588111,300.032986824305,300.025183885405,300.218679736322,0.3,5000.0,20.0,0.9
98,282.925646007347,300.014735555856,300.024427545049,300.034119534241,300.043811523433,300.053503512625,300.062302585183,300.033328307216,300.025452557726,300.218948408643,0.3,5000.0,20.0,0.9
99,282.925839963207,300.014888014414,300.024517202683,300.034146390953,300.043775579222,300.053404767491,300.062488318393,300.033669817276,300.025721364151,300.219217215067,0.3,5000.0,20.0,0.9
100,282.926034494222,300.015040300994,300.024605842008,300.034171383022,300.043736924037,300.053302465051,300.062604469549,300.03401135916,300.025990313812,300.219486164729,0.3,5000.0,20.0,0.9
101,282.926089885253,300.015187398199,300.024844537621,300.034501677042,300.044158816464,300.053815955885,300.063208442431,300.034352937282,300.026259415778,300.219755266695,0.3,5000.0,20.0,0.9
102,282.926286334722,300.015339544448,300.024930671971,300.034521799494,300.044112927016,300.053704054539,300.063241301656,300.034694543847,300.026528650088,300.220024501004,0.3,5000.0,20.0,0.9
103,282.926483270843,300.015491505801,300.025015863669,300.034540221536,300.044064579403,300.05358893727,300.063113295137,300.035036183709,300.026798025869,300.220293876786,0.3,5000.0,20.0,0.9
