Time,TC1_tip,TC2,TC3,TC4,TC5,TC6,TC7,TC8,TC9,TC10,h,flux,abs,surf
1,282.88756951294,300.014811573982,300.006089058959,300.002503268288,300.001029155602,300.000423102511,300.000173940613,300.000071506766,300.000033263098,300.043214738639,0.4,5000.0,20.0,0.9
2,282.894077366662,300.025852264604,300.012178288757,300.005006821286,300.002058385115,300.000846213617,300.000347878846,300.000143022344,300.000066601156,300.043248076697,0.4,5000.0,20.0,0.9
3,282.897740099333,300.016912172946,300.01826841341,300.007510500597,300.003087672613,300.001269369194,300.000521842026,300.000214535324,300.000100022899,300.04328149844,0.4,5000.0,20.0,0.9
4,282.900096780871,300.012977187028,300.0243591541,300.010014200548,300.004116994035,300.001692549568,300.00069581952,300.000286065096,300.000133525943,300.043315001483,0.4,5000.0,20.0,0.9
5,282.901764139229,300.010861860899,300.030449683904,300.012518164574,300.005146334807,300.002115704101,300.000869788393,300.000357583789,300.000167105187,300.043348580727,0.4,5000.0,20.0,0.9
6,282.90297049062,300.009627082217,300.036521243511,300.015022604678,300.006175896427,300.002538980384,300.001043822966,300.000429116685,300.000200755707,300.043382231248,0.4,5000.0,20.0,0.9
7,282.903943361344,300.008826610385,300.036933973783,300.01752697279,300.007205477765,300.002962270266,300.001217832252,300.000500657238,300.000234472547,300.043415948088,0.4,5000.0,20.0,0.9
8,282.904897966786,300.008211614033,300.034590667861,300.020031124809,300.008235148537,300.003385609718,300.001391846265,300.000572200981,300.000268250861,300.043449726402,0.4,5000.0,20.0,0.9
9,282.905774255881,300.007757391598,300.032664953672,300.022536099933,300.009264980116,300.003808943767,300.001565881917,300.000643746505,300.000302087714,300.043483563254,0.4,5000.0,20.0,0.9
10,282.906285152208,300.00755912663,300.031678172591,300.025041375585,300.010294628328,300.004232277052,300.001739961789,300.000715308555,300.000335982493,300.043517458033,0.4,5000.0,20.0,0.9
11,282.90691925595,300.007351889585,300.030532760039,300.027545846697,300.011324725966,300.004655662405,300.001914014884,300.00078687899,300.000369929415,300.043551404956,0.4,5000.0,20.0,0.9
12,282.907418323284,300.007243192226,300.029742406258,300.030051376507,300.012354668395,300.005079136459,300.002088086475,300.000858446971,300.000403928271,300.043585403812,0.4,5000.0,20.0,0.9
13,282.908002447552,300.007127044357,300.028839973528,300.032557340467,300.013384396462,300.005502619042,300.002262205552,300.000930005939,300.000437975357,300.043619450898,0.4,5000.0,20.0,0.9
14,282.908432830064,300.007096767421,300.028288022553,300.035062242012,300.014414599242,300.00592604843,300.002436282032,300.001001589285,300.000472071075,300.043653546616,0.4,5000.0,20.0,0.9
15,282.908924343196,300.007059207452,300.02765158121,300.037568774417,300.01544478706,300.006349600274,300.002610427306,300.001073183309,300.000506211961,300.043687687502,0.4,5000.0,20.0,0.9
16,282.9092556424,300.007096585056,300.02735065872,300.040072350916,300.016475473511,300.006773117382,300.002784574104,300.001144748125,300.000540398822,300.043721874363,0.4,5000.0,20.0,0.9
17,282.90963489982,300.007125721762,300.02697828956,300.042542193862,300.017505678893,300.007196687335,300.002958689488,300.001216364989,300.000574628346,300.043756103887,0.4,5000.0,20.0,0.9
18,282.910053981267,300.007149225303,300.026549063404,300.044681424667,300.018536047681,300.007620323174,300.003132844638,300.001287961337,300.000608899396,300.043790374937,0.4,5000.0,20.0,0.9
19,282.91030763916,300.007238748096,300.026443071509,300.045647394922,300.019566563463,300.008044171805,300.003307036662,300.00135956553,300.000643213224,300.043824688765,0.4,5000.0,20.0,0.9
20,282.910595345233,300.007321140357,300.026283741348,300.045246342339,300.0205974854,300.008467872131,300.003481242841,300.001431180096,300.000677566649,300.04385904219,0.4,5000.0,20.0,0.9
21,282.910912661894,300.007397810567,300.026079003353,300.044760196138,300.021628201229,300.008891439231,300.003655459053,300.001502792455,300.000711958771,300.043893434312,0.4,5000.0,20.0,0.9
22,282.911255576221,300.007469957965,300.025835876952,300.044201795939,300.022658514378,300.009315347146,300.003829679612,300.001574423638,300.000746388757,300.043927864297,0.4,5000.0,20.0,0.9
23,282.91162046081,300.007538600634,300.025560572516,300.043582544397,300.023689884901,300.009739216757,300.004003897088,300.001646036967,300.000780855826,300.043962331366,0.4,5000.0,20.0,0.9
24,282.911818246556,300.007665096884,300.025593730399,300.043522363914,300.024720673425,300.010162910898,300.004178155937,300.001717683829,300.000815361734,300.043996837275,0.4,5000.0,20.0,0.9
25,282.912216946923,300.007728588133,300.025269394975,300.042810201817,300.025751864191,300.010586887154,300.004352388265,300.001789314634,300.000849900923,300.044031376464,0.4,5000.0,20.0,0.9
26,282.912447171635,300.007848618674,300.025252405095,300.042656191517,300.026783044282,300.011010676768,300.004526678671,300.001860967612,300.000884477708,300.044065953248,0.4,5000.0,20.0,0.9
27,282.912694255604,300.007964782552,300.025208318122,300.042451853691,300.027814237158,300.011434780287,300.004700974989,300.001932624601,300.000919088975,300.044100564516,0.4,5000.0,20.0,0.9
28,282.912956538097,300.008077547315,300.025139980285,300.042202413255,300.028845481888,300.011858548986,300.004875279447,300.002004260481,300.000953734149,300.044135209689,0.4,5000.0,20.0,0.9
29,282.913232472423,300.008187331153,300.025050007129,300.041912683105,300.0298768099,300.012282749656,300.005049594132,300.002075949773,300.000988412682,300.044169888223,0.4,5000.0,20.0,0.9
30,282.913344617491,300.008348817028,300.025252161936,300.042155506844,300.030908305402,300.012706788726,300.005223856393,300.002147595802,300.001023126731,300.044204602271,0.4,5000.0,20.0,0.9
31,282.913645953347,300.008452634685,300.025121075386,300.041789516087,300.031939826641,300.013130727911,300.005398186645,300.002219286427,300.001057870483,300.044239346024,0.4,5000.0,20.0,0.9
32,282.913957065733,300.008554473392,300.02497481328,300.041395153168,300.032971398833,300.013554970012,300.005572535695,300.002290959283,300.001092646117,300.044274121658,0.4,5000.0,20.0,0.9
33,282.914105536873,300.008706516766,300.025116313212,300.041526109657,300.034002655521,300.0139791195,300.005746963918,300.002362624157,300.001127455939,300.04430893148,0.4,5000.0,20.0,0.9
34,282.914435488689,300.008804077426,300.024939858706,300.041075639987,300.03503462645,300.014403056501,300.005921343553,300.002434349587,300.001162294039,300.04434376958,0.4,5000.0,20.0,0.9
35,282.914603813661,300.008950932833,300.025048152418,300.041145372003,300.036066804191,300.014827221504,300.006095771588,300.002506018936,300.001197165545,300.044378641085,0.4,5000.0,20.0,0.9
36,282.914781172216,300.009095330096,300.025141137797,300.041186945498,300.037098039348,300.01525153188,300.006270117268,300.002577730955,300.001232067308,300.044413542849,0.4,5000.0,20.0,0.9
37,282.914967001458,300.009237423067,300.025219770115,300.041202117163,300.038130769979,300.015675878355,300.006444552843,300.00264945851,300.001266998955,300.044448474495,0.4,5000.0,20.0,0.9
38,282.915327341727,300.00932776841,300.024993971649,300.040660174889,300.03916275908,300.016100246469,300.00661896667,300.002721122518,300.00130195724,300.044483432781,0.4,5000.0,20.0,0.9
39,282.915527740234,300.009466029331,300.025048185324,300.040630341317,300.040194519431,300.016524502219,300.006793494261,300.00279288738,300.001336947557,300.044518423098,0.4,5000.0,20.0,0.9
40,282.915734963673,300.009602402291,300.025090770494,300.040579138697,300.041226883736,300.016948746069,300.006967955191,300.002864609034,300.001371966716,300.044553442257,0.4,5000.0,20.0,0.9
41,282.91594855086,300.009737001725,300.025122486097,300.040507970468,300.042258343601,300.017373284228,300.00714235235,300.002936300504,300.001407014397,300.044588489937,0.4,5000.0,20.0,0.9
42,282.916168061555,300.00986993431,300.025144051365,300.04041816842,300.04328959672,300.017797842056,300.007316885494,300.003008082153,300.001442090288,300.044623565829,0.4,5000.0,20.0,0.9
43,282.91623139804,300.010048989354,300.025437675698,300.040826362041,300.04432070602,300.018222240383,300.007491402425,300.003079827307,300.001477197089,300.044658672629,0.4,5000.0,20.0,0.9
44,282.916462757906,300.010178473337,300.02543870314,300.040698932943,300.045347822396,300.018646565809,300.0076658558,300.003151536342,300.001512328541,300.044693804082,0.4,5000.0,20.0,0.9
45,282.916698928426,300.010306558539,300.025431395105,300.04055623167,300.046370752322,300.019071305877,300.007840481538,300.003223317503,300.001547487341,300.044728962881,0.4,5000.0,20.0,0.9
46,282.916939527315,300.010433330096,300.025416360825,300.040399391555,300.047383003995,300.019496005259,300.008015059052,300.003295085174,300.00158267322,300.04476414876,0.4,5000.0,20.0,0.9
47,282.917025525434,300.010605565093,300.025670247697,300.0407349303,300.04839712285,300.019920345105,300.008189535182,300.003366830991,300.001617888997,300.044799364537,0.4,5000.0,20.0,0.9
48,282.917275464595,300.010729500112,300.025638782887,300.040548065661,300.049375654703,300.020345133115,300.008364182588,300.003438600839,300.001653128281,300.044834603822,0.4,5000.0,20.0,0.9
49,282.917528873974,300.010852333804,300.02560111664,300.040349899476,300.050312099528,300.020769954044,300.008538790696,300.003510401348,300.00168839389,300.04486986943,0.4,5000.0,20.0,0.9
50,282.917629166434,300.011020162772,300.025829725493,300.040639288214,300.051265922272,300.02119432615,300.008713312438,300.003582170151,300.001723688724,300.044905164265,0.4,5000.0,20.0,0.9
51,282.91789031037,300.011140529474,300.025778212112,300.040415894749,300.052083971596,300.021619338561,300.008887995158,300.003653935638,300.001759006296,300.044940481837,0.4,5000.0,20.0,0.9
52,282.917998918835,300.011305736074,300.02599199432,300.040678252566,300.052947324707,300.022044004038,300.009062546284,300.003725757371,300.001794352681,300.044975828221,0.4,5000.0,20.0,0.9
53,282.918266862893,300.011423845887,300.025928127073,300.040432408259,300.053544631214,300.022468831539,300.009237186392,300.003797555754,300.001829721326,300.045011196866,0.4,5000.0,20.0,0.9
54,282.91838312073,300.011586597978,300.026128184657,300.040669771336,300.054256978871,300.022893760982,300.009411939282,300.003869331248,300.001865118394,300.045046593935,0.4,5000.0,20.0,0.9
55,282.918656995328,300.011702639382,300.026053338797,300.040404038213,300.054494301319,300.023318465639,300.009586561065,300.003941168727,300.001900537271,300.045082012812,0.4,5000.0,20.0,0.9
56,282.918780277009,300.011863090085,300.026240696861,300.040618303637,300.044180269834,300.023743606,300.009761312588,300.00401299807,300.001935984205,300.045117459745,0.4,5000.0,20.0,0.9
57,282.918906689102,300.012022506551,300.0264223775,300.040822248449,300.055222119398,300.024168607294,300.009935874735,300.004084811947,300.001971455787,300.045152931328,0.4,5000.0,20.0,0.9
58,282.919188991998,300.012135520979,300.026331750614,300.04052798025,300.054724209885,300.024593555717,300.010110639316,300.004156600039,300.002006948543,300.045188424084,0.4,5000.0,20.0,0.9
59,282.919321610955,300.01229283308,300.026502064535,300.04071129599,300.054920527444,300.025018599119,300.010285445597,300.00422846905,300.002042468843,300.045223944384,0.4,5000.0,20.0,0.9
60,282.919457042559,300.012449191025,300.026667226472,300.040885261919,300.055103297367,300.025443322157,300.010460166071,300.004300321445,300.002078013241,300.045259488781,0.4,5000.0,20.0,0.9
61,282.919595201065,300.012604616829,300.026827379038,300.041050141246,300.055272903454,300.025868699359,300.010634908593,300.004372156161,300.002113581562,300.045295057102,0.4,5000.0,20.0,0.9
62,282.919885323298,300.012714471607,300.026721393565,300.040728315523,300.054735237481,300.026293552598,300.010809617712,300.004443972533,300.002149170318,300.045330645859,0.4,5000.0,20.0,0.9
63,282.920026749922,300.012868611504,300.026875197801,300.040881784098,300.054888370395,300.026718948027,300.010984525238,300.004515863285,300.002184786004,300.045366261544,0.4,5000.0,20.0,0.9
64,282.920170621457,300.013021888847,300.02702445593,300.041027023012,300.055029590094,300.02714421548,300.011159172603,300.004587735692,300.002220425114,300.045401900654,0.4,5000.0,20.0,0.9
65,282.920316861925,300.013174322431,300.027169292862,300.041164263294,300.055159233725,300.027569181154,300.011334134107,300.004659588693,300.00225608749,300.04543756303,0.4,5000.0,20.0,0.9
66,282.920465396979,300.013325930461,300.027309830454,300.041293730446,300.055277630439,300.02799454873,300.011508869743,300.004731421235,300.002291772977,300.045473248518,0.4,5000.0,20.0,0.9
67,282.92076501285,300.013431694847,300.027184678544,300.04093766224,300.054690645936,300.028419821595,300.011683750396,300.004803350585,300.002327477987,300.045508953527,0.4,5000.0,20.0,0.9
68,282.920917810896,300.013581644566,300.027316974173,300.041052303779,300.054787633386,300.028845031553,300.011858611144,300.00487523933,300.002363209229,300.045544684769,0.4,5000.0,20.0,0.9
69,282.921072655999,300.013730825399,300.02744536809,300.04115991078,300.054874453471,300.029270643453,300.012033500411,300.00494710615,300.002398963139,300.045580438679,0.4,5000.0,20.0,0.9
70,282.921229480982,300.013879253125,300.027569969027,300.041260684928,300.05495140083,300.029695996222,300.01220833073,300.005018956297,300.002434739575,300.045616215116,0.4,5000.0,20.0,0.9
71,282.921388220117,300.014026943032,300.027690883059,300.041354823087,300.055018763114,300.030121094134,300.012383295815,300.005090908437,300.002470538399,300.04565201394,0.4,5000.0,20.0,0.9
72,282.921548809099,300.014173909932,300.027808213672,300.041442517411,300.05507682115,300.030546809423,300.012558103888,300.005162837723,300.002506359476,300.045687835017,0.4,5000.0,20.0,0.9
73,282.921711185019,300.014320168177,300.027922061819,300.04152395546,300.055125849102,300.030972423806,300.012733139377,300.005234743049,300.002542202673,300.045723678214,0.4,5000.0,20.0,0.9
74,282.921875286333,300.014465731672,300.028032525988,300.041599320305,300.055166114621,300.031397804694,300.012907933935,300.005306623317,300.002578067861,300.045759543401,0.4,5000.0,20.0,0.9
75,282.922041052835,300.014610613889,300.02813970226,300.041668790632,300.055197879003,300.03182312155,300.013083033581,300.005378550546,300.002613954911,300.045795430452,0.4,5000.0,20.0,0.9
76,282.922208425676,300.014754827867,300.028243684285,300.041732540703,300.055221397121,300.032249025638,300.013257823834,300.005450519283,300.0026498637,300.045831339241,0.4,5000.0,20.0,0.9
77,282.922377347597,300.014898386147,300.028344562882,300.041790739617,300.055236916352,300.03267471765,300.013432980528,300.005522461846,300.002685794106,300.045867269646,0.4,5000.0,20.0,0.9
78,282.922547761883,300.015041301094,300.028442427894,300.041843554694,300.055244681494,300.033100204503,300.013607784148,300.00559437711,300.002721746008,300.045903221549,0.4,5000.0,20.0,0.9
79,282.922719613423,300.01518358458,300.028537366333,300.041891148086,300.055244929839,300.033525696032,300.013782981846,300.005666281502,300.00275771929,300.045939194831,0.4,5000.0,20.0,0.9
80,282.922892848313,300.015325248108,300.028629463078,300.041933678048,300.055237893018,300.033951720562,300.013957820343,300.005738288016,300.002793713836,300.045975189377,0.4,5000.0,20.0,0.9
81,282.923067413836,300.015466302823,300.028718800927,300.041971299031,300.055223797135,300.03437756144,300.014133038586,300.005810265953,300.002829729534,300.046011205075,0.4,5000.0,20.0,0.9
82,282.923243258367,300.015606759545,300.02880546077,300.042004161995,300.05520286322,300.034803226688,300.014307902634,300.00588221417,300.002865766272,300.046047241813,0.4,5000.0,20.0,0.9
83,282.923276789443,300.015792101789,300.029145869053,300.042499636317,300.055853403581,300.035229062959,300.014482964191,300.005954185454,300.002901827613,300.046083303153,0.4,5000.0,20.0,0.9
84,282.923455585237,300.015931394796,300.029226790992,300.042522187188,300.055817583384,300.035654594198,300.014658230759,300.006026107716,300.00293790612,300.046119381661,0.4,5000.0,20.0,0.9
85,282.92363553285,300.016070118071,300.029305237492,300.042540356913,300.055775476334,300.036080772147,300.014833119686,300.006098130645,300.002974005348,300.046155480889,0.4,5000.0,20.0,0.9
86,282.923816584472,300.016208281272,300.029381282722,300.042554284173,300.055727285623,300.036506862491,300.015008426455,300.00617014734,300.003010125193,300.046191600733,0.4,5000.0,20.0,0.9
87,282.923998693366,300.016345893753,300.029454999021,300.042564104288,300.055673209556,300.036932804012,300.01518335864,300.006242131256,300.003046265554,300.046227741094,0.4,5000.0,20.0,0.9
88,282.924181813831,300.01648296458,300.029526456941,300.042569949303,300.055613441664,300.037358605823,300.015358676269,300.006314081237,300.003082426331,300.046263901872,0.4,5000.0,20.0,0.9
89,282.924223721326,300.016665413354,300.029851415991,300.043037418629,300.056223421267,300.0377846448,300.015533825216,300.006386086192,300.003118611178,300.046300086718,0.4,5000.0,20.0,0.9
90,282.924409402468,300.016801411627,300.029917767005,300.043034122384,300.056150477762,300.038210482467,300.015708828792,300.006458118817,300.003154812507,300.046336288048,0.4,5000.0,20.0,0.9
91,282.924595981413,300.016936892342,300.029982038419,300.043027184497,300.056072330574,300.038636869823,300.015884154496,300.006530171197,300.003191033966,300.046372509507,0.4,5000.0,20.0,0.9
92,282.924783415842,300.017071863596,300.030044294965,300.043016726333,300.055989157702,300.03906313281,300.016059226421,300.006602187525,300.00322727546,300.046408751,0.4,5000.0,20.0,0.9
93,282.924971664393,300.01720633323,300.030104599758,300.043002866287,300.055901132815,300.039489280164,300.016234532273,300.006674166625,300.003263536898,300.046445012439,0.4,5000.0,20.0,0.9
94,282.925019805564,300.017386589177,300.03041798085,300.043449372524,300.056480764197,300.039915484571,300.016409750146,300.006746200254,300.003299822003,300.046481297544,0.4,5000.0,20.0,0.9
95,282.925210321791,300.017520052754,300.030473648229,300.043427243704,300.056380839178,300.04034155881,300.016584916204,300.006818255053,300.003336123072,300.046517598612,0.4,5000.0,20.0,0.9
96,282.925401548249,300.017653035893,300.030527525434,300.043402014974,300.056276504514,300.040767532696,300.016760199214,300.006890339174,300.003372443819,300.04655391936,0.4,5000.0,20.0,0.9
97,282.925593446683,300.01778554559,300.030579670315,300.043373795039,300.056167919764,300.041193929049,300.016935455204,300.006962383752,300.00340878416,300.046590259701,0.4,5000.0,20.0,0.9
98,282.925646006909,300.017964213666,300.030884775609,300.043805337552,300.056725899495,300.041620251951,300.017110730165,300.007034440994,300.003445147872,300.046626623413,0.4,5000.0,20.0,0.9
99,282.925839962767,300.018095764126,300.03093261814,300.043769472154,300.056606326169,300.04204678027,300.017285972448,300.007106449813,300.003481527157,300.046663002698,0.4,5000.0,20.0,0.9
100,282.926034493779,300.018226860302,300.030978877743,300.043730895183,300.056482912624,300.042473209425,300.017461345175,300.007178540691,300.003517925787,300.046699401328,0.4,5000.0,20.0,0.9
101,282.926089884801,300.018404481397,300.031278620764,300.044152760132,300.057026899499,300.042899632862,300.017636661833,300.007250615235,300.003554347581,300.046735823122,0.4,5000.0,20.0,0.9
102,282.92628633427,300.018534649037,300.03132079898,300.044106948922,300.056893098865,300.043325996278,300.017811844029,300.007322732105,300.003590784669,300.04677226021,0.4,5000.0,20.0,0.9
103,282.926483270388,300.018664378995,300.031361528963,300.04405867893,300.056755828897,300.043752262856,300.017987344934,300.007394805236,300.003627240864,300.046808716404,0.4,5000.0,20.0,0.9
