Time,TC1_tip,TC2,TC3,TC4,TC5,TC6,TC7,TC8,TC9,TC10,h,flux,abs,surf
1,285.613874717596,300.014811711652,300.006088961665,300.002503377871,300.001029107745,300.00042310421,300.00017393417,300.000071510212,300.00003326839,300.043214743931,0.4,5000.0,20.0,0.7
2,285.623910830034,300.029624284599,300.012178315307,300.005006893096,300.002058334209,300.00084622719,300.000347890696,300.000143022326,300.000066615203,300.043248090744,0.4,5000.0,20.0,0.7
3,285.630169386025,300.034798010554,300.018268677427,300.007510351388,300.003087551496,300.001269356911,300.000521855938,300.000214543238,300.000100046596,300.043281522136,0.4,5000.0,20.0,0.7
4,285.634616447886,300.032366546132,300.024359415502,300.010014125884,300.004117026819,300.001692573267,300.000695810133,300.000286066352,300.000133560015,300.043315035556,0.4,5000.0,20.0,0.7
5,285.638479419118,300.031918481964,300.030450368684,300.012518244714,300.005146454789,300.002115791017,300.000869793374,300.000357597366,300.000167149023,300.043348624563,0.4,5000.0,20.0,0.7
6,285.642037023222,300.032329187075,300.036540543307,300.015022729269,300.006176012458,300.002538942112,300.001043826483,300.000429132257,300.000200808139,300.043382283679,0.4,5000.0,20.0,0.7
7,285.645182216138,300.033428003528,300.042633644537,300.017527205352,300.00720562579,300.002962303445,300.001217828657,300.00050065855,300.000234533731,300.043416009271,0.4,5000.0,20.0,0.7
8,285.648226238138,300.03473023102,300.048725530324,300.020031235703,300.008235148538,300.003385631454,300.001391882201,300.000572215841,300.00026832093,300.043449796471,0.4,5000.0,20.0,0.7
9,285.651114990491,300.036239374214,300.05481870853,300.022536043552,300.009265081737,300.00380893503,300.001565913681,300.000643766204,300.000302166839,300.043483642379,0.4,5000.0,20.0,0.7
10,285.653500242148,300.038304429165,300.060906493014,300.025041674345,300.010294955624,300.004232382118,300.00173998114,300.000715325144,300.000336070971,300.043517546511,0.4,5000.0,20.0,0.7
11,285.656332793735,300.039874543071,300.066751660018,300.027546609626,300.011324799846,300.004655737757,300.00191404381,300.000786880595,300.000370025204,300.043551500745,0.4,5000.0,20.0,0.7
12,285.658635928363,300.042011100111,300.071193289475,300.030051829071,300.012354781824,300.005079231778,300.002088140738,300.000858460446,300.000404033664,300.043585509205,0.4,5000.0,20.0,0.7
13,285.661309169711,300.043720813849,300.07168037726,300.032557935259,300.013384779099,300.00550266565,300.002262235175,300.000930003134,300.000438088341,300.043619563881,0.4,5000.0,20.0,0.7
14,285.663455160222,300.046001574075,300.073929078181,300.035062832805,300.014415116838,300.005926226196,300.002436280469,300.001001605125,300.000472194153,300.043653669693,0.4,5000.0,20.0,0.7
15,285.665954234337,300.04786493277,300.074926514176,300.03756879304,300.015444944824,300.006349691658,300.002610460962,300.001073198493,300.000506342876,300.043687818416,0.4,5000.0,20.0,0.7
16,285.668213051848,300.049983905105,300.07671727002,300.040075957085,300.016475481192,300.006773324692,300.002784604997,300.001144768001,300.000540537833,300.043722013374,0.4,5000.0,20.0,0.7
17,285.670515272844,300.052034596998,300.078319500194,300.04258165668,300.017506130907,300.00719697331,300.002958705795,300.001216367615,300.000574775464,300.043756251004,0.4,5000.0,20.0,0.7
18,285.672853353385,300.054023082817,300.079754122577,300.045088749229,300.018536600972,300.007620640052,300.0031329411,300.001287989858,300.000609054625,300.043790530166,0.4,5000.0,20.0,0.7
19,285.67494805168,300.05628997414,300.082032201021,300.047595354305,300.019567233247,300.008044228342,300.003307045089,300.001359595913,300.00064337691,300.043824852451,0.4,5000.0,20.0,0.7
20,285.677344961625,300.058168593418,300.083175871025,300.050102710153,300.020597709297,300.008467894336,300.003481317406,300.001431179096,300.000677736127,300.043859211667,0.4,5000.0,20.0,0.7
21,285.679495458251,300.060337485929,300.085190683272,300.052610019552,300.021628594894,300.00889170321,300.003655429701,300.001502800375,300.000712136716,300.043893612257,0.4,5000.0,20.0,0.7
22,285.681668939568,300.062463886166,300.087092704915,300.055117426976,300.022659455839,300.009315573604,300.003829740177,300.001574449021,300.000746575199,300.043928050739,0.4,5000.0,20.0,0.7
23,285.683862592209,300.06455008042,300.088889779776,300.05762488301,300.023690296076,300.009739157789,300.004003942714,300.001646088076,300.000781050791,300.043962526332,0.4,5000.0,20.0,0.7
24,285.686073779064,300.066598180524,300.0905891964,300.060132329218,300.024721121924,300.01016318085,300.00417819091,300.001717715384,300.000815562761,300.043997038302,0.4,5000.0,20.0,0.7
25,285.688039737982,300.068966573824,300.093219821453,300.062640579361,300.025752295024,300.010586866621,300.00435249932,300.001789345451,300.000850113401,300.044031588942,0.4,5000.0,20.0,0.7
26,285.690282917358,300.07094628332,300.094743333666,300.065149007288,300.026783542697,300.011010981205,300.004526701037,300.001860954358,300.000884696155,300.044066171696,0.4,5000.0,20.0,0.7
27,285.692537136529,300.072893051845,300.096187039742,300.067657365702,300.02781479598,300.01143498769,300.004701046525,300.001932646476,300.000919313341,300.044100788882,0.4,5000.0,20.0,0.7
28,285.694547089062,300.075175729697,300.098592812066,300.070164969041,300.028845366686,300.011858906574,300.004875377017,300.002004318356,300.000953967516,300.044135443057,0.4,5000.0,20.0,0.7
29,285.696568174863,300.077436422303,300.100941081091,300.072674262728,300.029877483587,300.012282732991,300.005049657293,300.00207599086,300.0009886551,300.044170130641,0.4,5000.0,20.0,0.7
30,285.698855546067,300.079295242355,300.10216757384,300.075182293808,300.0309088685,300.012706953872,300.005223966381,300.002147658763,300.001023372338,300.044204847879,0.4,5000.0,20.0,0.7
31,285.700894866945,300.081511782973,300.10440500411,300.077692995689,300.03194019675,300.013130889737,300.005398372961,300.002219324677,300.001058125191,300.044239600731,0.4,5000.0,20.0,0.7
32,285.702939545478,300.083713791073,300.106606677192,300.080200432399,300.032971937526,300.013555267815,300.005572725332,300.002290989508,300.001092910014,300.044274385555,0.4,5000.0,20.0,0.7
33,285.704992556379,300.085896449109,300.108759390365,300.08271177167,300.034003712571,300.013979278698,300.005747018647,300.002362652591,300.001127726313,300.044309201854,0.4,5000.0,20.0,0.7
34,285.707053353644,300.088060219285,300.110864703736,300.085220988968,300.035035274507,300.014403373973,300.005921376952,300.002434338346,300.001162573659,300.0443440492,0.4,5000.0,20.0,0.7
35,285.709121407793,300.090205546617,300.112924123665,300.087730678339,300.036067509719,300.014827836913,300.006095879956,300.002506062843,300.001197451642,300.044378927182,0.4,5000.0,20.0,0.7
36,285.711196202887,300.092332863676,300.114939115807,300.090241857207,300.03709889895,300.015251887353,300.006270321519,300.002577787182,300.001232359868,300.044413835409,0.4,5000.0,20.0,0.7
37,285.713277239178,300.09444258635,300.116911093461,300.092749509032,300.038131593593,300.015676179982,300.006444695486,300.002649510773,300.001267297963,300.044448773504,0.4,5000.0,20.0,0.7
38,285.715364031607,300.096535116155,300.118841424001,300.095262824776,300.039162823763,300.016100702595,300.006618995763,300.00272123303,300.001302265565,300.044483741105,0.4,5000.0,20.0,0.7
39,285.71745610939,300.098610840816,300.120731430518,300.097772532832,300.040195971139,300.016524765757,300.006793593062,300.002792953372,300.001337262327,300.044518737867,0.4,5000.0,20.0,0.7
40,285.719553015623,300.100670134819,300.122582393395,300.100283644317,300.041227063039,300.016949303483,300.006968125639,300.002864671218,300.001372287915,300.044553763456,0.4,5000.0,20.0,0.7
41,285.721654306896,300.10271335993,300.12439555181,300.102795666013,300.042260650292,300.017373855744,300.007142581415,300.002936385991,300.001407342009,300.04458881755,0.4,5000.0,20.0,0.7
42,285.723511455911,300.105183472605,300.127356716754,300.10530708028,300.043293121211,300.017798314347,300.007317080654,300.00300812451,300.00144242807,300.044623903611,0.4,5000.0,20.0,0.7
43,285.725622488054,300.107199641519,300.129103566711,300.107815505069,300.044324433613,300.018222373603,300.007491462765,300.003079840539,300.001477538299,300.04465901384,0.4,5000.0,20.0,0.7
44,285.727736860478,300.109200612179,300.130815569269,300.110330213949,300.045358276879,300.018647267342,300.007666046255,300.003151557612,300.001512676138,300.044694151679,0.4,5000.0,20.0,0.7
45,285.729854172211,300.111186706587,300.132493834492,300.112841119945,300.046389880694,300.019071839365,300.007840684312,300.003223349159,300.001547841309,300.04472931685,0.4,5000.0,20.0,0.7
46,285.731728154692,300.113622040639,300.135364908118,300.115353292774,300.047422615639,300.019496429394,300.008015241477,300.003295110807,300.001583037474,300.044764513015,0.4,5000.0,20.0,0.7
47,285.733853240403,300.115582753218,300.136982504093,300.117864634518,300.048456635234,300.019920612671,300.008189802539,300.003366906064,300.001618256549,300.04479973209,0.4,5000.0,20.0,0.7
48,285.735732446694,300.118006098665,300.139823173241,300.120376964765,300.049489602121,300.020345277943,300.008364385573,300.003438679606,300.001653506187,300.044834981728,0.4,5000.0,20.0,0.7
49,285.737864556991,300.119942085999,300.141382286656,300.122890825841,300.050521499505,300.020770459999,300.008538858664,300.00351047753,300.001688778157,300.044870253697,0.4,5000.0,20.0,0.7
50,285.739998115506,300.121864421378,300.142911845694,300.125400258752,300.051555731395,300.021195024341,300.008713453342,300.003582271353,300.001724076197,300.044905551738,0.4,5000.0,20.0,0.7
51,285.741887201193,300.124265562516,300.145695972967,300.127913150362,300.052588945533,300.021619777553,300.00888807918,300.003654062288,300.001759404205,300.044940879745,0.4,5000.0,20.0,0.7
52,285.744026535511,300.126164232455,300.147170623139,300.130426403179,300.053621081534,300.022044429053,300.009062850888,300.003725856926,300.001794753741,300.044976229281,0.4,5000.0,20.0,0.7
53,285.745920279406,300.128554007879,300.149926256778,300.132939311346,300.054654389895,300.022469265347,300.009237505318,300.00379765908,300.001830132881,300.045011608421,0.4,5000.0,20.0,0.7
54,285.748064704368,300.130429601954,300.151347975406,300.135450432158,300.055689030939,300.022894456692,300.009412182332,300.003869453502,300.001865533046,300.045047008586,0.4,5000.0,20.0,0.7
55,285.749962929457,300.132808206013,300.154075712225,300.137963490331,300.056722573502,300.023319355798,300.009586862801,300.003941266649,300.001900962476,300.045082438016,0.4,5000.0,20.0,0.7
56,285.752111803819,300.134661244002,300.155446284427,300.140469524555,300.057754908847,300.023743863134,300.009761434046,300.004013059829,300.001936412451,300.045117887992,0.4,5000.0,20.0,0.7
57,285.754014347634,300.13702884127,300.158146643958,300.142982243097,300.058788541296,300.024168810459,300.009936138003,300.004084883743,300.001971891373,300.045153366914,0.4,5000.0,20.0,0.7
58,285.756167010223,300.138859905042,300.159468004287,300.145492468687,300.059823649523,300.024594088914,300.010110794845,300.00415667466,300.002007390386,300.045188865926,0.4,5000.0,20.0,0.7
59,285.758073683839,300.14121671712,300.162141652499,300.148004987613,300.060857519784,300.025019128432,300.010285531958,300.004228509117,300.002042918044,300.045224393585,0.4,5000.0,20.0,0.7
60,285.75998032741,300.143572540392,300.164813310967,300.150517553982,300.061891471662,300.025444201818,300.010460283053,300.004300349266,300.00207846982,300.04525994536,0.4,5000.0,20.0,0.7
61,285.762140143806,300.145372546823,300.16606309099,300.153019406893,300.062923940354,300.025869377639,300.010635214073,300.0043721654,300.002114041038,300.045295516579,0.4,5000.0,20.0,0.7
62,285.764050741978,300.147717796118,300.168708667403,300.155531388066,300.063957975165,300.026294507413,300.010809993654,300.004444017998,300.002149640489,300.045331116029,0.4,5000.0,20.0,0.7
63,285.766212958898,300.149497013972,300.169913223049,300.158026372488,300.064993780904,300.026719057289,300.010984806059,300.004515924743,300.002185258977,300.045366734517,0.4,5000.0,20.0,0.7
64,285.768127345908,300.151831865811,300.172533265089,300.160537149928,300.066028059367,300.027144266387,300.011159611527,300.004587789383,300.002220905437,300.045402380977,0.4,5000.0,20.0,0.7
65,285.77004169351,300.154165785274,300.175151443346,300.163047867047,300.067062419335,300.02756950959,300.011334430846,300.004659659757,300.002256575181,300.045438050721,0.4,5000.0,20.0,0.7
66,285.772209397084,300.155915403424,300.176289277156,300.165536888873,300.068094925255,300.027995426919,300.011509122994,300.004731571761,300.002292263382,300.045473738923,0.4,5000.0,20.0,0.7
67,285.774127367183,300.158239119392,300.178882505046,300.168046112747,300.06912939334,300.028420734489,300.011683965557,300.004803453934,300.002327979196,300.045509454736,0.4,5000.0,20.0,0.7
68,285.77604529334,300.160561931739,300.181473933076,300.170555202149,300.070164028577,300.028846075779,300.011858821909,300.004875341837,300.00236371784,300.04554519338,0.4,5000.0,20.0,0.7
69,285.778217609762,300.162282717311,300.182547597932,300.173027210745,300.071200637339,300.029271146765,300.012033624484,300.004947257561,300.002399474395,300.045580949935,0.4,5000.0,20.0,0.7
70,285.780138995994,300.164595512475,300.185114639542,300.175534129768,300.072235403808,300.029696537168,300.01220851506,300.005019157022,300.002435258231,300.045616733772,0.4,5000.0,20.0,0.7
71,285.782060333942,300.166907431003,300.187679941374,300.178040829906,300.073270251617,300.030121960913,300.012383419624,300.005091062207,300.002471064473,300.045652540013,0.4,5000.0,20.0,0.7
72,285.784236417853,300.168600120306,300.18869189511,300.180494120572,300.074303420242,300.030547447587,300.012558530007,300.005162980124,300.00250688811,300.045688363651,0.4,5000.0,20.0,0.7
73,285.786161057258,300.170902200851,300.19123335564,300.182997785242,300.075338469868,300.030972962746,300.012733462642,300.005234896628,300.002542738723,300.045724214263,0.4,5000.0,20.0,0.7
74,285.788085644222,300.173203430149,300.193773133006,300.185501147212,300.076373602343,300.031398511843,300.0129084092,300.005306818851,300.002578611342,300.045760086883,0.4,5000.0,20.0,0.7
75,285.790010178527,300.175503813024,300.196311237316,300.188004199256,300.07740881764,300.031824094872,300.01308336968,300.005378746793,300.002614505842,300.045795981383,0.4,5000.0,20.0,0.7
76,285.792192411345,300.177160294206,300.197242206189,300.190428105012,300.07844565678,300.032249966277,300.013258354079,300.005450670741,300.002650417091,300.045831892632,0.4,5000.0,20.0,0.7
77,285.794120088414,300.179451030781,300.199757039937,300.192927137138,300.07948099004,300.032675605184,300.013433339861,300.005522609758,300.002686354943,300.045867830484,0.4,5000.0,20.0,0.7
78,285.796045532061,300.181746452642,300.202283970123,300.195426551444,300.080516411927,300.033101280146,300.013608340234,300.005594554647,300.002722314352,300.045903789893,0.4,5000.0,20.0,0.7
79,285.798227209248,300.183383224002,300.203175248416,300.197816211869,300.081550517828,300.033526153257,300.013783172826,300.005666478037,300.002758290067,300.045939765608,0.4,5000.0,20.0,0.7
80,285.80015510493,300.185670730589,300.20568322626,300.200311191744,300.08258610713,300.033951881491,300.013958198133,300.005738433997,300.002794292129,300.045975767669,0.4,5000.0,20.0,0.7
81,285.802082879799,300.187957589164,300.208190013598,300.202805747326,300.083621779104,300.034377643463,300.014133237342,300.00581039568,300.002830315358,300.046011790899,0.4,5000.0,20.0,0.7
82,285.80401053381,300.190243803384,300.210695617967,300.205299874356,300.084657533753,300.034803439177,300.014308290453,300.005882363087,300.002866359645,300.046047835185,0.4,5000.0,20.0,0.7
83,285.806196701597,300.191846328054,300.211511790365,300.207642436603,300.085694679831,300.035230122053,300.014483314483,300.005954289755,300.002902419653,300.046083895193,0.4,5000.0,20.0,0.7
84,285.808127199427,300.194123452881,300.21399559983,300.21013092183,300.086730595203,300.035656003068,300.014658397337,300.006026267977,300.002938505695,300.046119981235,0.4,5000.0,20.0,0.7
85,285.81005757567,300.196399951248,300.216478263744,300.212618899294,300.08776659283,300.036081917992,300.014833494148,300.006098251923,300.002974612472,300.046156088013,0.4,5000.0,20.0,0.7
86,285.811987830289,300.198675826509,300.218959789017,300.215106365666,300.088802672718,300.036507866827,300.015008604918,300.006170241592,300.003010739883,300.046192215424,0.4,5000.0,20.0,0.7
87,285.813917963247,300.200951081966,300.221440182438,300.217593317719,300.089838834872,300.036933849574,300.015183729648,300.006242236986,300.003046887826,300.046228363366,0.4,5000.0,20.0,0.7
88,285.816110473339,300.20251191947,300.222163944836,300.219861645671,300.090873945898,300.037359658368,300.015359091312,300.006314169935,300.003083050818,300.046264526359,0.4,5000.0,20.0,0.7
89,285.818043315438,300.204778256916,300.22462304553,300.222341439778,300.09191028006,300.03778570175,300.015534245648,300.006386175928,300.003119239494,300.046300715034,0.4,5000.0,20.0,0.7
90,285.819976035202,300.207043991093,300.227081048957,300.224820636627,300.092946696908,300.038211778955,300.015709413931,300.006458187645,300.003155448407,300.046336923948,0.4,5000.0,20.0,0.7
91,285.8219086326,300.209309125042,300.229537961366,300.227299233951,300.093983196447,300.038637889985,300.015884596161,300.006530205087,300.003191677465,300.046373153005,0.4,5000.0,20.0,0.7
92,285.823841107599,300.211573661748,300.231993788906,300.229777229566,300.095019778682,300.039064034844,300.016059792338,300.006602228254,300.003227926572,300.046409402113,0.4,5000.0,20.0,0.7
93,285.826038750129,300.213093922679,300.23262877511,300.231965301375,300.096057393802,300.039489939568,300.01623500704,300.006674293902,300.003264190105,300.046445665646,0.4,5000.0,20.0,0.7
94,285.827973802601,300.215349705044,300.23506379294,300.234434910265,300.097094129186,300.039916157348,300.016410230277,300.00674632952,300.003300479009,300.046481954549,0.4,5000.0,20.0,0.7
95,285.829908732051,300.21760490552,300.237497758003,300.236903839172,300.098130946851,300.04034240912,300.016585467448,300.006818370876,300.003336787693,300.046518263233,0.4,5000.0,20.0,0.7
96,285.831843538456,300.219859526859,300.239930675957,300.239372086852,300.099167846803,300.040768694884,300.016760718555,300.006890417971,300.00337311607,300.046554591611,0.4,5000.0,20.0,0.7
97,285.833778222412,300.222113570007,300.242362548064,300.241839651292,300.100204829042,300.041195014648,300.016935983598,300.006962470804,300.003409464055,300.046590939596,0.4,5000.0,20.0,0.7
98,285.835979827015,300.22359431545,300.242912246151,300.243922994584,300.101241209619,300.041621921725,300.01711102571,300.007034592717,300.003445825883,300.046627301424,0.4,5000.0,20.0,0.7
99,285.837916959769,300.225839760644,300.245323773301,300.246381003481,300.102278371375,300.042048309803,300.017286315284,300.007106657594,300.0034822128,300.046663688341,0.4,5000.0,20.0,0.7
100,285.839853968921,300.228084643588,300.247734288508,300.248838265849,300.103315615832,300.042474731789,300.01746161878,300.00717872821,300.003518619076,300.046700094617,0.4,5000.0,20.0,0.7
101,285.841790854453,300.230328966798,300.250143796941,300.25129478141,300.104352942996,300.042901187682,300.0176369362,300.007250804566,300.00355504463,300.04673652017,0.4,5000.0,20.0,0.7
102,285.843727616342,300.232572732752,300.252552303692,300.253750549929,300.10539035287,300.043327677487,300.017812267545,300.007322886662,300.003591489382,300.046772964922,0.4,5000.0,20.0,0.7
103,285.845664248188,300.234815962647,300.254959859325,300.256205581349,300.106427845378,300.043754201208,300.017987612825,300.007394974496,300.003627953254,300.046809428795,0.4,5000.0,20.0,0.7
