Time,TC1_tip,TC2,TC3,TC4,TC5,TC6,TC7,TC8,TC9,TC10,h,flux,abs,surf
1,285.605875906758,300.011548865459,300.007404905813,300.004747876626,300.003044240647,300.001951902876,300.001251517985,300.000901787124,300.000901787124,300.86795516715,0.4,5000.0,10.0,0.7
2,285.613874768052,300.023011210978,300.014809910952,300.009495816325,300.006088522719,300.003903833833,300.002503055527,300.001804740677,300.001804740677,300.868858120703,0.4,5000.0,10.0,0.7
3,285.619695752471,300.013007795297,300.022215019612,300.014243834893,300.009132812088,300.005855818845,300.003754631195,300.002708881011,300.002708881011,300.869762261036,0.4,5000.0,10.0,0.7
4,285.623910882625,300.009677823096,300.029620099435,300.018991894268,300.012177257007,300.00780782509,300.005006221872,300.003614163423,300.003614163423,300.870667543448,0.4,5000.0,10.0,0.7
5,285.627403821464,300.008663575407,300.031681951079,300.023740141506,300.015221624886,300.009759863207,300.006257807657,300.004520497704,300.004520497704,300.87157387773,0.4,5000.0,10.0,0.7
6,285.630169448369,300.008710891928,300.035134117499,300.028488388058,300.018266211434,300.011711889837,300.007509455707,300.005427820048,300.005427820048,300.872481200074,0.4,5000.0,10.0,0.7
7,285.632748358188,300.009207537123,300.033246309649,300.0332366555,300.021310721966,300.013664046652,300.008761120435,300.006336042592,300.006336042592,300.873389422618,0.4,5000.0,10.0,0.7
8,285.635082118152,300.009974498072,300.032187401231,300.037985208787,300.024355393136,300.01561619259,300.010012777277,300.007245115337,300.007245115337,300.874298495362,0.4,5000.0,10.0,0.7
9,285.637124608529,300.010906219882,300.03179342444,300.042733618151,300.027400054761,300.017568380004,300.011264456567,300.008154998121,300.008154998121,300.875208378147,0.4,5000.0,10.0,0.7
10,285.638899058547,300.011934383102,300.031898489795,300.047481392694,300.030444805398,300.019520595977,300.012516188478,300.009065652685,300.009065652685,300.87611903271,0.4,5000.0,10.0,0.7
11,285.640406772847,300.013019985191,300.032421355578,300.051720274147,300.033489481328,300.021472872535,300.013767976799,300.00997704712,300.00997704712,300.877030427145,0.4,5000.0,10.0,0.7
12,285.642422260593,300.01411984438,300.03240167522,300.05068350606,300.036534429772,300.023425172281,300.015019713935,300.010889080546,300.010889080546,300.877942460571,0.4,5000.0,10.0,0.7
13,285.643758299527,300.015258431758,300.033226202792,300.051193973826,300.039579311965,300.025377513569,300.016271565752,300.011801836209,300.011801836209,300.878855216235,0.4,5000.0,10.0,0.7
14,285.645544501569,300.016403749958,300.033557654275,300.050711558592,300.042624242171,300.027329884954,300.017523383155,300.012715181544,300.012715181544,300.87976856157,0.4,5000.0,10.0,0.7
15,285.647029484064,300.017561480591,300.034253638239,300.050945795887,300.045669380107,300.029282311772,300.018775244358,300.013629169719,300.013629169719,300.880682549745,0.4,5000.0,10.0,0.7
16,285.648226274295,300.018724259962,300.035284426213,300.051844592463,300.048714427687,300.031234717976,300.020027074879,300.014543782757,300.014543782757,300.881597162783,0.4,5000.0,10.0,0.7
17,285.64981822588,300.019889993829,300.035876340964,300.051862688099,300.051759544388,300.033187261508,300.02127897627,300.015458927943,300.015458927943,300.882512307969,0.4,5000.0,10.0,0.7
18,285.651115031957,300.021056488658,300.036802118626,300.052547748595,300.05480476011,300.035139762219,300.022530947105,300.016374665447,300.016374665447,300.883428045473,0.4,5000.0,10.0,0.7
19,285.652451762843,300.022223185958,300.03768335825,300.053143530542,300.057850007265,300.03709229103,300.023782870634,300.017290942848,300.017290942848,300.884344322874,0.4,5000.0,10.0,0.7
20,285.653821886857,300.023389230767,300.038525665216,300.053662099665,300.060895202282,300.039044908861,300.025034834992,300.018207746705,300.018207746705,300.88526112673,0.4,5000.0,10.0,0.7
21,285.655219521174,300.024553758542,300.039333894753,300.054114030965,300.063933570249,300.04099760717,300.026286861578,300.019125064591,300.019125064591,300.886178444616,0.4,5000.0,10.0,0.7
22,285.656332847776,300.025716456895,300.040458487018,300.055200517142,300.066930319806,300.042950287431,300.027538843684,300.020042923869,300.020042923869,300.887096303895,0.4,5000.0,10.0,0.7
23,285.65777846555,300.026876444706,300.041203404876,300.055530365045,300.033031886675,300.044902994488,300.028790901065,300.020961235942,300.020961235942,300.888014615968,0.4,5000.0,10.0,0.7
24,285.658939475147,300.028035079629,300.042265998531,300.056496917432,300.070727836334,300.046855710508,300.03004300939,300.02188006893,300.02188006893,300.888933448956,0.4,5000.0,10.0,0.7
25,285.660114757082,300.029191586064,300.043308168982,300.0574247519,300.071541334819,300.048808585309,300.031295110052,300.022799375072,300.022799375072,300.889852755097,0.4,5000.0,10.0,0.7
26,285.661309185919,300.030345639926,300.044323765033,300.05830189014,300.072280015248,300.050761435428,300.032547211177,300.023719144458,300.023719144458,300.890772524484,0.4,5000.0,10.0,0.7
27,285.662520641707,300.031496952176,300.045314582373,300.059132212569,300.072949842766,300.052714280423,300.033799387259,300.024639368626,300.024639368626,300.891692748652,0.4,5000.0,10.0,0.7
28,285.663747135976,300.032645236979,300.046282275201,300.059919313423,300.073556351645,300.054667214734,300.035051541601,300.025560039587,300.025560039587,300.892613419612,0.4,5000.0,10.0,0.7
29,285.664986806756,300.033790213017,300.047228364541,300.060666516066,300.07410466759,300.056620202228,300.036303741067,300.02648114978,300.02648114978,300.893534529806,0.4,5000.0,10.0,0.7
30,285.666237915256,300.034931604462,300.04815424395,300.061376883437,300.074599522924,300.058573196384,300.037555985973,300.027402692042,300.027402692042,300.894456072067,0.4,5000.0,10.0,0.7
31,285.667219818975,300.036079865131,300.049397273721,300.062714682312,300.076032090903,300.060526235671,300.038808229111,300.028324699215,300.028324699215,300.89537807924,0.4,5000.0,10.0,0.7
32,285.668493953839,300.037214936009,300.050284299087,300.063353662164,300.076423025242,300.062479307992,300.040060467783,300.029247085422,300.029247085422,300.896300465448,0.4,5000.0,10.0,0.7
33,285.66949961177,300.038359129687,300.051492264727,300.064625399766,300.077758534806,300.064432407711,300.041312748207,300.030169924001,300.030169924001,300.897223304026,0.4,5000.0,10.0,0.7
34,285.670792137308,300.039487187901,300.052344239839,300.065201291777,300.078058343715,300.066385502374,300.04256509106,300.031093129334,300.031093129334,300.89814650936,0.4,5000.0,10.0,0.7
35,285.671818352619,300.040626895909,300.053519884339,300.066412872769,300.0793058612,300.068338757657,300.043817444467,300.032016775525,300.032016775525,300.899070155551,0.4,5000.0,10.0,0.7
36,285.673125071926,300.041747274777,300.054340170949,300.066933067122,300.079525963295,300.070291908322,300.045069818762,300.032940777356,300.032940777356,300.899994157382,0.4,5000.0,10.0,0.7
37,285.674168920649,300.042882090213,300.055485954173,300.068089818134,300.080693682095,300.07224525901,300.046322210612,300.033865209406,300.033865209406,300.900918589431,0.4,5000.0,10.0,0.7
38,285.675220465517,300.044014946267,300.056619064314,300.06922318236,300.081827300407,300.074198525167,300.047574621995,300.034790026852,300.034790026852,300.901843406877,0.4,5000.0,10.0,0.7
39,285.676279290838,300.045145789124,300.057739859328,300.070333929532,300.082927999736,300.076151910692,300.048827056702,300.035715224879,300.035715224879,300.902768604904,0.4,5000.0,10.0,0.7
40,285.677344993558,300.046274565475,300.058848683984,300.071422802494,300.083996921003,300.078105227264,300.050079551764,300.036640798858,300.036640798858,300.903694178883,0.4,5000.0,10.0,0.7
41,285.678682091574,300.047376381724,300.05959679827,300.071817214815,300.08403763136,300.080058646977,300.051332080147,300.037566704195,300.037566704195,300.90462008422,0.4,5000.0,10.0,0.7
42,285.679759785441,300.048499445198,300.060680436525,300.072861427852,300.085042419179,300.082012019032,300.052584607049,300.038493016817,300.038493016817,300.905546396842,0.4,5000.0,10.0,0.7
43,285.680843037046,300.049620250794,300.061753198821,300.073886146847,300.086019094874,300.083965393664,300.053837140636,300.039419692525,300.039419692525,300.906473072551,0.4,5000.0,10.0,0.7
44,285.681931497385,300.050738748484,300.062815375777,300.07489200307,300.086968630363,300.08591851072,300.055089672789,300.040346727328,300.040346727328,300.907400107354,0.4,5000.0,10.0,0.7
45,285.683024828095,300.051854888981,300.063867247553,300.075879606124,300.087891964695,300.087871049808,300.056342302138,300.041274117371,300.041274117371,300.908327497396,0.4,5000.0,10.0,0.7
46,285.684122701135,300.052968623767,300.064909084254,300.076849544741,300.088790005228,300.089822303855,300.057594944312,300.042201858927,300.042201858927,300.909255238953,0.4,5000.0,10.0,0.7
47,285.685224798486,300.05407990512,300.065941146336,300.077802387553,300.08966362877,300.091770837147,300.058847566272,300.043129948395,300.043129948395,300.91018332842,0.4,5000.0,10.0,0.7
48,285.686330811861,300.055188686138,300.066963684976,300.078738683813,300.09051368265,300.093713918394,300.060100231659,300.044058382285,300.044058382285,300.911111762311,0.4,5000.0,10.0,0.7
49,285.687185212391,300.056332060497,300.068340272825,300.080348485154,300.092356697483,300.095665504821,300.061352934931,300.044987197397,300.044987197397,300.912040577423,0.4,5000.0,10.0,0.7
50,285.688300068398,300.057437380608,300.0693457761,300.081254171592,300.093162567085,300.097596534259,300.062605680431,300.045916310041,300.045916310041,300.912969690067,0.4,5000.0,10.0,0.7
51,285.68941810417,300.058540093115,300.070342365487,300.082144637859,300.093946910232,300.099507506695,300.063858370558,300.046845757268,300.046845757268,300.913899137293,0.4,5000.0,10.0,0.7
52,285.690539042123,300.059640153756,300.071330262997,300.083020372237,300.094710481478,300.101384232356,300.065111195601,300.047775535994,300.047775535994,300.91482891602,0.4,5000.0,10.0,0.7
53,285.691662613241,300.060737519173,300.072309682833,300.083881846493,300.095454010153,300.103205148641,300.066363953354,300.04870564323,300.04870564323,300.915759023256,0.4,5000.0,10.0,0.7
54,285.692537189784,300.061876946892,300.073655480607,300.085434014323,300.097212548039,300.105140031588,300.067616769122,300.049636116291,300.049636116291,300.916689496317,0.4,5000.0,10.0,0.7
55,285.693667780943,300.062970599002,300.074619400907,300.086268202812,300.097917004716,300.106862296451,300.068869660113,300.050566871784,300.050566871784,300.917620251809,0.4,5000.0,10.0,0.7
56,285.694800356692,300.064061456141,300.075575369757,300.087089283373,300.098603196989,300.108448172291,300.070122467583,300.051497947293,300.051497947293,300.918551327319,0.4,5000.0,10.0,0.7
57,285.695934675168,300.065149477823,300.076523576667,300.08789767551,300.099271774354,300.109839231268,300.071375422974,300.052429340146,300.052429340146,300.919482720172,0.4,5000.0,10.0,0.7
58,285.696822922009,300.066285747161,300.077847521763,300.089409296365,300.100971070966,300.111730960564,300.072628343649,300.053361087901,300.053361087901,300.920414467926,0.4,5000.0,10.0,0.7
59,285.697962993981,300.067369873427,300.078781282679,300.090192691932,300.101604101184,300.112827058989,300.073881279004,300.054293107532,300.054293107532,300.921346487558,0.4,5000.0,10.0,0.7
60,285.699104220767,300.068451070607,300.079707752097,300.090964433587,300.102221115078,300.113477796568,300.075134210445,300.055225436888,300.055225436888,300.922278816914,0.4,5000.0,10.0,0.7
61,285.700000950687,300.069585104846,300.081017573583,300.092450042321,300.103882511058,300.115314979796,300.076387198464,300.0561581137,300.0561581137,300.923211493726,0.4,5000.0,10.0,0.7
62,285.701144270527,300.070662945988,300.081934821564,300.09320669714,300.104478572715,300.115750448291,300.077640268333,300.057091055605,300.057091055605,300.92414443563,0.4,5000.0,10.0,0.7
63,285.702041904635,300.07179649954,300.083242641292,300.094688783043,300.106134924794,300.117581066545,300.078893313831,300.058024340488,300.058024340488,300.925077720513,0.4,5000.0,10.0,0.7
64,285.703189506439,300.07287040539,300.084147018534,300.095423631679,300.106700244823,300.117976857968,300.080146393439,300.058957885309,300.058957885309,300.926011265334,0.4,5000.0,10.0,0.7
65,285.704337491901,300.073941291515,300.085044787151,300.096148282787,300.107251778423,300.118355274059,300.081399473066,300.059891728358,300.059891728358,300.926945108384,0.4,5000.0,10.0,0.7
66,285.705242765931,300.075072625141,300.086339463616,300.09760630209,300.108873140565,300.12013997904,300.08265259648,300.060825907654,300.060825907654,300.92787928768,0.4,5000.0,10.0,0.7
67,285.706394583562,300.076139403094,300.08722451433,300.098309625566,300.109394736802,300.120479848039,300.083905717283,300.061760340572,300.061760340572,300.928813720597,0.4,5000.0,10.0,0.7
68,285.707303513877,300.077269535044,300.088512615732,300.09975569642,300.110998777109,300.122241857797,300.085158891315,300.062695105666,300.062695105666,300.929748485691,0.4,5000.0,10.0,0.7
69,285.70845875849,300.078332145055,300.089385282501,300.100438419947,300.111491557394,300.12254469484,300.086412064515,300.063630120262,300.063630120262,300.930683500288,0.4,5000.0,10.0,0.7
70,285.709371231334,300.079461065771,300.090666917371,300.10187276897,300.11307862057,300.124284472169,300.087665288857,300.064565463123,300.064565463123,300.931618843148,0.4,5000.0,10.0,0.7
71,285.710529509034,300.080519449661,300.091527524691,300.102535599721,300.113543674752,300.124551749782,300.088918521969,300.065501051568,300.065501051568,300.932554431594,0.4,5000.0,10.0,0.7
72,285.711445412633,300.081647149608,300.092802799368,300.103958449127,300.115114098887,300.126269748647,300.09017179636,300.066436964508,300.066436964508,300.933490344533,0.4,5000.0,10.0,0.7
73,285.712606342651,300.082701250248,300.093651659109,300.104602067969,300.115552476829,300.126502885689,300.09142509257,300.067373119303,300.067373119303,300.934426499328,0.4,5000.0,10.0,0.7
74,285.713525567966,300.083827719711,300.094920676488,300.106013633264,300.117106590041,300.128199546818,300.09267841672,300.068309594955,300.068309594955,300.93536297498,0.4,5000.0,10.0,0.7
75,285.7146887816,300.084877481225,300.095758089494,300.106638697763,300.117519306031,300.1283999143,300.09393177426,300.069246308909,300.069246308909,300.936299688934,0.4,5000.0,10.0,0.7
76,285.715611221912,300.086002710425,300.097020949731,300.108039189036,300.119057428341,300.130075667646,300.095185147784,300.070183340206,300.070183340206,300.937236720232,0.4,5000.0,10.0,0.7
77,285.716776362175,300.08704807821,300.097847206255,300.108646334301,300.119445462346,300.130244590392,300.09643855931,300.071120606417,300.071120606417,300.938173986443,0.4,5000.0,10.0,0.7
78,285.717701913037,300.088172057329,300.099104006866,300.110035956402,300.120967905939,300.131899855476,300.097691981656,300.072058186572,300.072058186572,300.939111566598,0.4,5000.0,10.0,0.7
79,285.718627472614,300.089295903126,300.100360524712,300.111425146297,300.122489767883,300.133554389468,300.098945428813,300.072996038824,300.072996038824,300.940049418849,0.4,5000.0,10.0,0.7
80,285.719797193504,300.090335697261,300.101170222936,300.112004748611,300.122839274285,300.13367379996,300.100198904013,300.073934120894,300.073934120894,300.94098750092,0.4,5000.0,10.0,0.7
81,285.720725759811,300.091458285366,300.102420782478,300.113383279589,300.124345776701,300.135308273812,300.10145239915,300.074872512303,300.074872512303,300.941925892328,0.4,5000.0,10.0,0.7
82,285.721896628703,300.092493568359,300.103219960745,300.113946353131,300.124672745517,300.135399137903,300.102705893429,300.075811130511,300.075811130511,300.942864510537,0.4,5000.0,10.0,0.7
83,285.722828094929,300.093614891329,300.104464667017,300.115314442706,300.126164218394,300.137013994083,300.103959435439,300.076750054914,300.076750054914,300.943803434939,0.4,5000.0,10.0,0.7
84,285.723759564334,300.094736086794,300.105709108652,300.116682130511,300.127655152369,300.138628174228,300.105213002144,300.077689243695,300.077689243695,300.944742623721,0.4,5000.0,10.0,0.7
85,285.724934053848,300.095765662561,300.106492536305,300.117219410048,300.127946283791,300.138673157534,300.106466595026,300.078628654686,300.078628654686,300.945682034712,0.4,5000.0,10.0,0.7
86,285.725868329614,300.096885583019,300.107731209815,300.11857683661,300.129422463405,300.1402680902,300.107720217666,300.079568367625,300.079568367625,300.946621747651,0.4,5000.0,10.0,0.7
87,285.727043239363,300.097910536492,300.108504709577,300.119098882663,300.129693055749,300.140287228835,300.108973879826,300.080508300075,300.080508300075,300.947561680101,0.4,5000.0,10.0,0.7
88,285.727980225675,300.099029172009,300.109737702524,300.120446233039,300.131154763554,300.141863294069,300.110227548339,300.081448531541,300.081448531541,300.948501911567,0.4,5000.0,10.0,0.7
89,285.728917213825,300.100147683947,300.110970440372,300.121793196796,300.132615953221,300.143438709646,300.111481241558,300.082389020337,300.082389020337,300.949442400362,0.4,5000.0,10.0,0.7
90,285.730094859496,300.101166796116,300.111728911388,300.122291026659,300.132853141931,300.143415257203,300.112734926823,300.083329724493,300.083329724493,300.950383104518,0.4,5000.0,10.0,0.7
91,285.731034462986,300.102284015108,300.11295605949,300.123628103872,300.134300148254,300.144972192636,300.113988674317,300.084270723723,300.084270723723,300.951324103749,0.4,5000.0,10.0,0.7
92,285.731974066813,300.1034011129,300.114182959051,300.124964805202,300.135746651353,300.146528497504,300.115242446585,300.085211976336,300.085211976336,300.952265356361,0.4,5000.0,10.0,0.7
93,285.73315397686,300.104414315241,300.114926792089,300.125439268937,300.135951745784,300.146464222632,300.116496247338,300.086153440394,300.086153440394,300.953206820419,0.4,5000.0,10.0,0.7
94,285.734096102887,300.105530111983,300.116148190193,300.126766268404,300.137384346614,300.148002424824,300.117750063197,300.087095195748,300.087095195748,300.954148575774,0.4,5000.0,10.0,0.7
95,285.735038227802,300.10664578979,300.11736934602,300.12809290225,300.13881645848,300.149540014709,300.119003903665,300.088037200727,300.088037200727,300.955090580752,0.4,5000.0,10.0,0.7
96,285.736219945957,300.107653015378,300.11809891792,300.128544820462,300.138990723004,300.149436625545,300.120257781099,300.088979413455,300.088979413455,300.95603279348,0.4,5000.0,10.0,0.7
97,285.737164501951,300.108767383956,300.119314658156,300.129861932355,300.140409206555,300.150956480755,300.121511674163,300.089921913848,300.089921913848,300.956975293874,0.4,5000.0,10.0,0.7
98,285.738109055433,300.109881635758,300.120530162104,300.131178688449,300.141827214794,300.15247574114,300.122765591815,300.090864660285,300.090864660285,300.957918040311,0.4,5000.0,10.0,0.7
99,285.739292140271,300.110882819305,300.121245836345,300.131608853385,300.141971870425,300.152334887465,300.12401949734,300.091807610978,300.091807610978,300.958860991004,0.4,5000.0,10.0,0.7
100,285.74023903568,300.111995753647,300.122456008244,300.132916262841,300.143376517438,300.153836772035,300.125273465545,300.092750845841,300.092750845841,300.959804225866,0.4,5000.0,10.0,0.7
101,285.741185927228,300.113108573276,300.123665949592,300.134223325908,300.144780702225,300.155338078541,300.126527458239,300.093694323329,300.093694323329,300.960747703354,0.4,5000.0,10.0,0.7
102,285.742132814836,300.114221278603,300.124875661319,300.135530044036,300.146184426753,300.156838809469,300.127781475401,300.094638042337,300.094638042337,300.961691422362,0.4,5000.0,10.0,0.7
103,285.743319097981,300.115215145063,300.125572767441,300.135930389818,300.146288012195,300.156645634573,300.129035454555,300.095581961006,300.095581961006,300.962635341032,0.4,5000.0,10.0,0.7
