Time,TC1_tip,TC2,TC3,TC4,TC5,TC6,TC7,TC8,TC9,TC10,h,flux,abs,surf
1,288.626280857149,300.010334552102,300.005929433395,300.003402070764,300.00195191048,300.001119937822,300.000642560991,300.000368674729,300.000332254614,300.409931121261,0.5,5000.0,10.0,0.5
2,288.635839545728,300.02066930173,300.011859039445,300.006804077393,300.003903902731,300.002239891181,300.001285141357,300.000737345279,300.00066483538,300.410263702027,0.5,5000.0,10.0,0.5
3,288.643607024437,300.031003687279,300.017788495854,300.010206251654,300.005855891629,300.003359847014,300.001927727703,300.001106041923,300.000997760708,300.410596627355,0.5,5000.0,10.0,0.5
4,288.649899957909,300.038652196536,300.023718188629,300.013608583887,300.007807869768,300.004479847428,300.002570308313,300.001474731782,300.001331036186,300.410929902833,0.5,5000.0,10.0,0.5
5,288.655005547957,300.036482338158,300.029648173221,300.017010673993,300.009760018449,300.005599858979,300.003212927235,300.001843410473,300.001664658934,300.411263525581,0.5,5000.0,10.0,0.5
6,288.659799290283,300.036103333365,300.035578294092,300.020413158225,300.011712113274,300.006719861269,300.003855541049,300.002212128426,300.001998604905,300.411597471552,0.5,5000.0,10.0,0.5
7,288.66420363227,300.036831973597,300.041508288026,300.023815369823,300.013664168016,300.007839909229,300.004498188454,300.002580851557,300.002332862116,300.411931728763,0.5,5000.0,10.0,0.5
8,288.668204991817,300.038294525926,300.047438667038,300.027218065019,300.015616384944,300.008959888752,300.005140807052,300.002949568554,300.002667419323,300.41226628597,0.5,5000.0,10.0,0.5
9,288.671808842203,300.040283497087,300.053368584337,300.030620325764,300.017568465792,300.010079998052,300.005783448661,300.003318280906,300.003002266258,300.412601132905,0.5,5000.0,10.0,0.5
10,288.67502026646,300.042687043605,300.059298864524,300.034023011704,300.019520928294,300.011200212736,300.006426139944,300.003686992028,300.003337393694,300.412936260341,0.5,5000.0,10.0,0.5
11,288.678920986256,300.044583417249,300.065229640296,300.037425571381,300.02147321756,300.012320339908,300.007068791189,300.00405574685,300.003672747002,300.413271613649,0.5,5000.0,10.0,0.5
12,288.681837797681,300.047294790654,300.071158811727,300.040828651442,300.023425466801,300.013440411994,300.007711534284,300.004424508175,300.00400838697,300.413607253616,0.5,5000.0,10.0,0.5
13,288.685364548672,300.049534862584,300.076923353652,300.044231279063,300.025377900345,300.014560675828,300.008354241663,300.004793273448,300.004344234319,300.413943100965,0.5,5000.0,10.0,0.5
14,288.688463465276,300.052112941747,300.080619205951,300.047634249855,300.027330332908,300.015680748755,300.008996931543,300.005162036914,300.004680329737,300.414279196384,0.5,5000.0,10.0,0.5
15,288.691628409729,300.054634316093,300.082272807811,300.051036855991,300.029282784708,300.016801071767,300.009639593033,300.005530800037,300.005016641978,300.414615508625,0.5,5000.0,10.0,0.5
16,288.694381775422,300.057473795425,300.085028541646,300.054440175963,300.031235001537,300.017921287498,300.010282436806,300.005899568023,300.005353191339,300.414952057986,0.5,5000.0,10.0,0.5
17,288.697650129049,300.059893139715,300.086360154389,300.057843281664,300.033187447001,300.01904160395,300.010925162585,300.00626832925,300.005689918687,300.415288785334,0.5,5000.0,10.0,0.5
18,288.700503668029,300.062633434445,300.088803266757,300.061246234319,300.035140350529,300.020161899497,300.011567925018,300.006637098514,300.006026872873,300.41562573952,0.5,5000.0,10.0,0.5
19,288.70339717922,300.065330483605,300.09111415448,300.064649154775,300.037092810539,300.021282213217,300.012210725005,300.007005898916,300.006364021875,300.415962888522,0.5,5000.0,10.0,0.5
20,288.706324442146,300.067987278132,300.093305770404,300.068052334575,300.039045505895,300.02240254653,300.01285347473,300.007374725957,300.006701360932,300.416300227579,0.5,5000.0,10.0,0.5
21,288.709279753386,300.070606427536,300.095389719921,300.071455850241,300.040998200054,300.023522899992,300.013496339802,300.007743557181,300.00703888563,300.416637752277,0.5,5000.0,10.0,0.5
22,288.712257889229,300.073190203671,300.097376391345,300.074859350765,300.042950834562,300.024643272986,300.014139049169,300.008112391873,300.007376591863,300.41697545851,0.5,5000.0,10.0,0.5
23,288.714841346688,300.076108505524,300.10048005464,300.078262806847,300.044903358064,300.025763514491,300.014781958308,300.008481227278,300.00771450671,300.417313373356,0.5,5000.0,10.0,0.5
24,288.717862484163,300.078626543167,300.102285298697,300.081666348306,300.046856537404,300.026883963833,300.015424786291,300.008850069846,300.008052565217,300.417651431864,0.5,5000.0,10.0,0.5
25,288.720490791329,300.081488459015,300.105224568017,300.085069886151,300.04880926591,300.028004506962,300.016067601385,300.0092189168,300.008390826368,300.417989693014,0.5,5000.0,10.0,0.5
26,288.72313753367,300.08432709128,300.108096046897,300.088473461178,300.050761849042,300.029124924784,300.016710567486,300.00958777008,300.008729256015,300.418328122662,0.5,5000.0,10.0,0.5
27,288.726205914745,300.086756375612,300.109668260644,300.091877026359,300.052715116824,300.030245448987,300.017353301123,300.009956622838,300.009067818138,300.418666684784,0.5,5000.0,10.0,0.5
28,288.728885150316,300.089544532338,300.112401012589,300.0952806161,300.054668082501,300.031365854355,300.017996321444,300.010325486286,300.009406575298,300.419005441945,0.5,5000.0,10.0,0.5
29,288.731578224331,300.092311627049,300.115075569009,300.098684680333,300.056620934985,300.032486529588,300.018639256779,300.010694355618,300.009745492308,300.419344358955,0.5,5000.0,10.0,0.5
30,288.73428395469,300.095058224121,300.117694383227,300.102088838542,300.058573677356,300.033606804164,300.019282070112,300.011063230729,300.010084566576,300.419683433223,0.5,5000.0,10.0,0.5
31,288.73700120706,300.097784855715,300.120259790237,300.10549304825,300.060526832085,300.034727666719,300.019925055665,300.011432111508,300.010423795638,300.420022662285,0.5,5000.0,10.0,0.5
32,288.739728892893,300.100492023813,300.122774013059,300.108897290117,300.062480158462,300.035848075721,300.020568066145,300.011800997833,300.010763177148,300.420362043795,0.5,5000.0,10.0,0.5
33,288.742462495582,300.103183935744,300.125250607286,300.112301534706,300.06443340254,300.036968838954,300.021210940686,300.012169889786,300.011102709189,300.420701575836,0.5,5000.0,10.0,0.5
34,288.745199779492,300.105862628452,300.127696189695,300.115705779305,300.066386551591,300.038089451999,300.021853897118,300.012538810315,300.011442389762,300.421041256408,0.5,5000.0,10.0,0.5
35,288.747944703584,300.108523356402,300.130096721775,300.119110019759,300.068339601583,300.039210037114,300.022496982395,300.012907765862,300.011782216378,300.421381083025,0.5,5000.0,10.0,0.5
36,288.750696369095,300.111166510707,300.132453991361,300.122514229488,300.070292560445,300.040330871632,300.023139920746,300.01327672998,300.012122187081,300.421721053728,0.5,5000.0,10.0,0.5
37,288.753076231928,300.114230444027,300.136078916641,300.12591861755,300.072245883652,300.041451588207,300.023782930185,300.01364568565,300.012462337334,300.422061203981,0.5,5000.0,10.0,0.5
38,288.755843934755,300.116843891645,300.138357939818,300.129322803934,300.074199230186,300.042571959311,300.024425876011,300.014014669351,300.012802591027,300.422401457674,0.5,5000.0,10.0,0.5
39,288.758616267814,300.119440709411,300.140597951228,300.132726883917,300.07615286056,300.043693066176,300.025069047939,300.014383661725,300.013142983389,300.422741850035,0.5,5000.0,10.0,0.5
40,288.761392449546,300.122021216563,300.14280046301,300.136131612412,300.078106419836,300.044813701987,300.025712051146,300.014752662735,300.013483512754,300.423082379401,0.5,5000.0,10.0,0.5
41,288.763801735387,300.125047322705,300.146315831504,300.139536359306,300.080059864294,300.045934511406,300.026355111974,300.015121663259,300.01382421643,300.423423083077,0.5,5000.0,10.0,0.5
42,288.766589948497,300.127599976962,300.148448290935,300.142941461049,300.082013412474,300.047055334264,300.026998067826,300.015490684611,300.014165015386,300.423763882033,0.5,5000.0,10.0,0.5
43,288.769008335869,300.130613298433,300.151927559549,300.146346307794,300.083966945167,300.048176168094,300.027641158404,300.015859708684,300.014505986419,300.424104853066,0.5,5000.0,10.0,0.5
44,288.771807081156,300.133138801066,300.153993048507,300.149751170223,300.085920488009,300.049297172843,300.028284420917,300.01622875088,300.01484704897,300.424445915616,0.5,5000.0,10.0,0.5
45,288.774606760159,300.135649238759,300.156026789799,300.153155501018,300.08787398571,300.050417667835,300.02892748634,300.01659780181,300.015188241044,300.424787107691,0.5,5000.0,10.0,0.5
46,288.777042002613,300.1386385965,300.159438619293,300.156560348948,300.089827652225,300.051538590359,300.029570610687,300.016966862951,300.015529602096,300.425128468743,0.5,5000.0,10.0,0.5
47,288.779849768705,300.141122970677,300.161410303042,300.15996349403,300.09178116207,300.052659881017,300.030213622203,300.017335935225,300.015871049524,300.425469916171,0.5,5000.0,10.0,0.5
48,288.782292939142,300.144100222816,300.16478871041,300.163368201632,300.093734912544,300.05378083338,300.030856777019,300.017705022196,300.016212664102,300.425811530749,0.5,5000.0,10.0,0.5
49,288.785107459763,300.146559131886,300.166701025144,300.166768829983,300.095688444166,300.054901746026,300.03150011533,300.018074116205,300.016554361819,300.426153228466,0.5,5000.0,10.0,0.5
50,288.787558185384,300.149524494644,300.170046862045,300.170173147216,300.097642277757,300.056022755744,300.032143295384,300.018443229935,300.016896224991,300.426495091638,0.5,5000.0,10.0,0.5
51,288.790378182779,300.151958504211,300.171902369014,300.173569939283,300.099595841702,300.057143565078,300.032786413635,300.018812346013,300.017238168241,300.426837034888,0.5,5000.0,10.0,0.5
52,288.792836101681,300.154912184565,300.175216456263,300.176973562714,300.101549757753,300.058264590387,300.033429613567,300.019181487416,300.017580275367,300.427179142014,0.5,5000.0,10.0,0.5
53,288.795660350728,300.157321829529,300.177017596113,300.180359609747,300.103503622062,300.059385973129,300.03407273699,300.019550625828,300.017922459671,300.427521326317,0.5,5000.0,10.0,0.5
54,288.798125111528,300.160264025783,300.180300725243,300.183761552959,300.105457520242,300.060507063067,300.034715969024,300.019919795802,300.018264806378,300.427863673024,0.5,5000.0,10.0,0.5
55,288.80058996418,300.163205439054,300.18358215519,300.187163327126,300.107411454055,300.061628174806,300.035359213942,300.020288980752,300.018607271519,300.428206138165,0.5,5000.0,10.0,0.5
56,288.803423703273,300.16558070815,300.185302741318,300.190526250049,300.109365724595,300.062749113567,300.03600262976,300.020658156156,300.018949809662,300.428548676309,0.5,5000.0,10.0,0.5
57,288.805895057488,300.168510830771,300.188553982612,300.19392497054,300.111319744916,300.06387028171,300.036645898636,300.021027371073,300.019292508263,300.42889137491,0.5,5000.0,10.0,0.5
58,288.808366493648,300.171440194297,300.191803584343,300.197323390714,300.113273800971,300.06499147211,300.037289180238,300.021396601761,300.019635322354,300.429234189001,0.5,5000.0,10.0,0.5
59,288.811207949471,300.173781896526,300.193447220363,300.200644252298,300.115228150031,300.066112580237,300.037932337889,300.021765815157,300.019978205559,300.429577072206,0.5,5000.0,10.0,0.5
60,288.813685537227,300.176700183729,300.196667456084,300.204037620282,300.117182291438,300.067233785036,300.038575637812,300.022135077167,300.020321247465,300.429920114112,0.5,5000.0,10.0,0.5
61,288.816527242334,300.179019266684,300.198264694032,300.207288762817,300.119136674952,300.068355306261,300.039218965486,300.022504313808,300.020664356098,300.430263222745,0.5,5000.0,10.0,0.5
62,288.819010660746,300.18192665032,300.201456269644,300.210673563483,300.121090900393,300.069476575429,300.039862300275,300.022873607941,300.021007622292,300.430606488938,0.5,5000.0,10.0,0.5
63,288.821494141341,300.18483331665,300.20464631268,300.214057667547,300.123045161769,300.070597866392,300.040505647905,300.02324291913,300.021350999551,300.430949866198,0.5,5000.0,10.0,0.5
64,288.823977683532,300.187739269767,300.207834832136,300.217441067369,300.124999459014,300.071719179132,300.041149008375,300.023612247638,300.021694487054,300.431293353701,0.5,5000.0,10.0,0.5
65,288.826829526036,300.190016124022,300.209334789794,300.220556686095,300.126953977455,300.072840279473,300.041792486959,300.023981539294,300.022038036621,300.431636903267,0.5,5000.0,10.0,0.5
66,288.829318569224,300.192911373714,300.212495420485,300.22392787096,300.128908357658,300.073961649756,300.04243586937,300.024350901673,300.022381741845,300.431980608491,0.5,5000.0,10.0,0.5
67,288.831807664565,300.195805930915,300.215654580252,300.227298138243,300.130862773753,300.07508304224,300.043079264462,300.024720282115,300.02272555496,300.432324421606,0.5,5000.0,10.0,0.5
68,288.834662324145,300.198051411578,300.217087458977,300.230223343369,300.132817382531,300.076204327587,300.043722425334,300.02508961365,300.023069426926,300.432668293573,0.5,5000.0,10.0,0.5
69,288.837156609728,300.200935439344,300.220219427176,300.233576892366,300.134771880366,300.077325729913,300.044365836631,300.025459029144,300.023413453225,300.433012319871,0.5,5000.0,10.0,0.5
70,288.839650938464,300.203818794049,300.223349973984,300.236929314946,300.136726414087,300.078447153524,300.045009260455,300.025828463427,300.023757585216,300.433356451863,0.5,5000.0,10.0,0.5
71,288.84214530988,300.206701479101,300.226479106875,300.240280608909,300.138680983628,300.079568598402,300.045652696803,300.026197916745,300.024101822198,300.433700688844,0.5,5000.0,10.0,0.5
72,288.845006137622,300.208906542291,300.227822772246,300.242901027446,300.140635730254,300.080690459076,300.046296374599,300.026567430924,300.024446113957,300.434044980604,0.5,5000.0,10.0,0.5
73,288.847505389646,300.211778879193,300.230925424403,300.246226441592,300.142590380297,300.081811970308,300.04693984982,300.026936926237,300.024790558519,300.434389425166,0.5,5000.0,10.0,0.5
74,288.850004675801,300.214650564466,300.234026708812,300.249550450058,300.144545066125,300.082933503207,300.047583337822,300.027306441424,300.025135106054,300.434733972701,0.5,5000.0,10.0,0.5
75,288.852503995663,300.217521601208,300.237126632258,300.252873054498,300.146499787672,300.084055057757,300.048226838602,300.027675976725,300.025479755916,300.435078622563,0.5,5000.0,10.0,0.5
76,288.85536898472,300.219687155047,300.238385147368,300.255022445318,300.148454671333,300.085176484426,300.048870341708,300.028045592304,300.025824456762,300.435423323408,0.5,5000.0,10.0,0.5
77,288.85787288518,300.222548016075,300.241459272271,300.258315506964,300.15040947201,300.08629809932,300.049513861684,300.028415169718,300.02616930905,300.435768175696,0.5,5000.0,10.0,0.5
78,288.860376811214,300.225408245351,300.244532079385,300.261607011799,300.152364308341,300.087419736254,300.050157394281,300.028784767955,300.026514261806,300.436113128452,0.5,5000.0,10.0,0.5
79,288.86288076244,300.228267845703,300.247603574898,300.264896964016,300.15431918026,300.08854139521,300.050800939496,300.029154387247,300.026859314432,300.436458181079,0.5,5000.0,10.0,0.5
80,288.86538473848,300.231126819908,300.250673764884,300.268185367772,300.156274087703,300.089663076168,300.051444497327,300.029524027817,300.027204466345,300.436803332991,0.5,5000.0,10.0,0.5
81,288.868256233644,300.233244336078,300.251827155441,300.221102353519,300.158229147869,300.090784270427,300.0520878406,300.029893745458,300.027549664785,300.437148531432,0.5,5000.0,10.0,0.5
82,288.870764492148,300.236093311752,300.254872236692,300.227782182224,300.160184132879,300.091905950471,300.052731432573,300.03026343026,300.027895013225,300.437493879872,0.5,5000.0,10.0,0.5
83,288.87327276775,300.238941676768,300.257916052505,300.234535329685,300.162139153318,300.093027651605,300.053375037413,300.030633137009,300.028240459261,300.437839325908,0.5,5000.0,10.0,0.5
84,288.875780071288,300.241791474065,300.260963858378,300.240668678865,300.164094219668,300.094149378919,300.054018653801,300.031002865777,300.028586002492,300.438184869139,0.5,5000.0,10.0,0.5
85,288.878284915837,300.244645774576,300.264023554368,300.245146025312,300.166049348969,300.095271140423,300.054662279815,300.031372616559,300.028931642593,300.43853050924,0.5,5000.0,10.0,0.5
86,288.881157434406,300.246723469975,300.265094616084,300.283465762192,300.168004612937,300.096393573307,300.055306189714,300.031742439198,300.029277325098,300.438876191745,0.5,5000.0,10.0,0.5
87,288.883666330759,300.249568157821,300.268130244288,300.286692330756,300.169959821009,300.097515394383,300.055949841733,300.032112236235,300.029623156361,300.439222023008,0.5,5000.0,10.0,0.5
88,288.886175169074,300.252412401414,300.27116502915,300.289917656886,300.17191506708,300.098637237575,300.056593506542,300.032482056256,300.029969082604,300.439567949251,0.5,5000.0,10.0,0.5
89,288.888683949247,300.255256202696,300.274198974739,300.293141746782,300.173870351143,300.099759102883,300.057237184139,300.032851899461,300.030315103329,300.439913969975,0.5,5000.0,10.0,0.5
90,288.891192671181,300.258099563576,300.277232085057,300.296364606539,300.175825673188,300.100880990304,300.057880874526,300.033221766049,300.030661218047,300.440260084693,0.5,5000.0,10.0,0.5
91,288.893701334778,300.260942485932,300.280264364043,300.299586242154,300.177781033206,300.102002899835,300.058524577701,300.033591656216,300.031007426276,300.440606292923,0.5,5000.0,10.0,0.5
92,288.896580406645,300.262965502873,300.281216707461,300.29946791205,300.179736498977,300.103124889917,300.059168081684,300.033961611807,300.031353672274,300.440952538921,0.5,5000.0,10.0,0.5
93,288.89909286536,300.265798968922,300.284225520335,300.302652071748,300.181691936861,300.104246852775,300.059811805143,300.034331550416,300.031700065804,300.44129893245,0.5,5000.0,10.0,0.5
94,288.901605263873,300.268632005849,300.2872335231,300.305835040352,300.183647412705,300.105368837902,300.060455541331,300.034701513182,300.032046551449,300.441645418096,0.5,5000.0,10.0,0.5
95,288.904117601574,300.271464616575,300.290240722387,300.309016828199,300.185602926507,300.106490845293,300.061099290248,300.035071500288,300.032393128761,300.441991995408,0.5,5000.0,10.0,0.5
96,288.906629878382,300.274296802798,300.29324712175,300.312197440701,300.187558478259,300.107612874947,300.061743051895,300.035441511917,300.032739797295,300.442338663942,0.5,5000.0,10.0,0.5
97,288.909142094213,300.277128566191,300.296252724685,300.315376883179,300.189514067953,300.108734926861,300.062386826272,300.035811548252,300.033086556615,300.442685423261,0.5,5000.0,10.0,0.5
98,288.912025126257,300.279098105339,300.297091655494,300.315085205648,300.191469728632,300.109856436001,300.063030699057,300.036181640388,300.033433349421,300.443032216068,0.5,5000.0,10.0,0.5
99,288.914540887574,300.281920561677,300.300074371731,300.318228181785,300.193425395186,300.110978535485,300.063674505162,300.036551727122,300.033780288728,300.443379155375,0.5,5000.0,10.0,0.5
100,288.917056585607,300.284742605086,300.303056314277,300.321370023468,300.195381099665,300.112100657383,300.064318324094,300.036921839089,300.034127317552,300.443726184199,0.5,5000.0,10.0,0.5
101,288.919572220284,300.287564237115,300.306037486367,300.324510735619,300.197336842059,300.11322280169,300.064962155854,300.037291976457,300.034474435482,300.444073302129,0.5,5000.0,10.0,0.5
102,288.922087791537,300.290385459288,300.309017891189,300.32765032309,300.199292622361,300.114344968405,300.06560600044,300.037662139397,300.034821642115,300.444420508761,0.5,5000.0,10.0,0.5
103,288.924603299296,300.29320627311,300.311997531884,300.330788790658,300.201248440561,300.115467157525,300.066249857854,300.038032328073,300.035168937051,300.444767803697,0.5,5000.0,10.0,0.5
