Time,TC1_tip,TC2,TC3,TC4,TC5,TC6,TC7,TC8,TC9,TC10,h,flux,abs,surf
1,288.622508456871,300.006821510727,300.005167060765,300.003913870941,300.002964622238,300.002245598722,300.002015155547,300.002015155547,300.002015155547,302.672416079051,0.5,5000.0,5.0,0.5
2,288.62628111333,300.013643049916,300.010334152589,300.007827764488,300.005929252999,300.004491199297,300.004031676162,300.004031676162,300.004031676162,302.674432599666,0.5,5000.0,5.0,0.5
3,288.631796395892,300.020464604915,300.015501257911,300.011741668286,300.008893904612,300.006736819686,300.00604945752,300.00604945752,300.00604945752,302.676450381023,0.5,5000.0,5.0,0.5
4,288.635839737003,300.016719138821,300.020668370715,300.015655578095,300.011858559021,300.008982447225,300.008068466915,300.008068466915,300.008068466915,302.678469390419,0.5,5000.0,5.0,0.5
5,288.640290164278,300.0123509246,300.025835542289,300.019569515828,300.01482323078,300.011228076634,300.010088565493,300.010088565493,300.010088565493,302.680489488997,0.5,5000.0,5.0,0.5
6,288.643607067913,300.010861515397,300.031002719116,300.023483472559,300.017787905038,300.013473711374,300.012109752,300.012109752,300.012109752,302.682510675504,0.5,5000.0,5.0,0.5
7,288.647170688514,300.010392293234,300.036169918206,300.027397452332,300.020752607514,300.015719367472,300.014131891458,300.014131891458,300.014131891458,302.684532814962,0.5,5000.0,5.0,0.5
8,288.649900002237,300.010777012388,300.03882856518,300.031311437452,300.023717323618,300.01796504258,300.016155004546,300.016155004546,300.016155004546,302.68655592805,0.5,5000.0,5.0,0.5
9,288.652806183252,300.011504294675,300.037109177412,300.035225436837,300.026682055139,300.020210715268,300.018178971343,300.018178971343,300.018178971343,302.688579894846,0.5,5000.0,5.0,0.5
10,288.655005595419,300.012530165992,300.036777397334,300.039139467495,300.029646775188,300.022456410785,300.020203827853,300.020203827853,300.020203827853,302.690604751357,0.5,5000.0,5.0,0.5
11,288.657352828354,300.013690338403,300.036556572467,300.043053526715,300.032611521576,300.024702108236,300.022229462636,300.022229462636,300.022229462636,302.69263038614,0.5,5000.0,5.0,0.5
12,288.659799341279,300.014962812002,300.036455331929,300.046967592672,300.035576306224,300.026947803398,300.024255844312,300.024255844312,300.024255844312,302.694656767816,0.5,5000.0,5.0,0.5
13,288.662307920391,300.016326903393,300.036472508079,300.050881677516,300.038541101294,300.029193540283,300.026282945429,300.026282945429,300.026282945429,302.696683868933,0.5,5000.0,5.0,0.5
14,288.664203687392,300.017714752862,300.037213382778,300.054784289487,300.041505889444,300.031439271861,300.028310815912,300.028310815912,300.028310815912,302.698711739416,0.5,5000.0,5.0,0.5
15,288.666175393117,300.019142121423,300.03795115925,300.056760197077,300.044470706485,300.033685007591,300.030339357281,300.030339357281,300.030339357281,302.700740280785,0.5,5000.0,5.0,0.5
16,288.668205051884,300.020603052486,300.038693510382,300.056783968278,300.047435539203,300.035930762896,300.032368549022,300.032368549022,300.032368549022,302.702769472525,0.5,5000.0,5.0,0.5
17,288.669681186598,300.022024574474,300.039965433765,300.057906293055,300.05040037388,300.038176518683,300.034398444686,300.034398444686,300.034398444686,302.70479936819,0.5,5000.0,5.0,0.5
18,288.671808908339,300.02353281678,300.040696195383,300.057859573987,300.053365219866,300.04042228986,300.03642888148,300.03642888148,300.03642888148,302.706829804983,0.5,5000.0,5.0,0.5
19,288.673392210013,300.024987490506,300.04191762664,300.058847762774,300.056330108749,300.042668086382,300.038459987251,300.038459987251,300.038459987251,302.708860910755,0.5,5000.0,5.0,0.5
20,288.675575478734,300.026528147683,300.042653273336,300.058778398989,300.059294977358,300.044913888078,300.040491605984,300.040491605984,300.040491605984,302.710892529488,0.5,5000.0,5.0,0.5
21,288.677232389127,300.028006089009,300.043841036444,300.05967598388,300.062259878794,300.047159697173,300.042523862907,300.042523862907,300.042523862907,302.712924786411,0.5,5000.0,5.0,0.5
22,288.678921064476,300.029492125509,300.045010303187,300.060528480865,300.065224792595,300.04940551115,300.044556675407,300.044556675407,300.044556675407,302.71495759891,0.5,5000.0,5.0,0.5
23,288.680625314885,300.030983128645,300.046172534131,300.061361939617,300.068189738759,300.051651344561,300.046590032978,300.046590032978,300.046590032978,302.716990956482,0.5,5000.0,5.0,0.5
24,288.682350094168,300.032478954936,300.047321978097,300.062165001257,300.071154583664,300.053897192963,300.048623923306,300.048623923306,300.048623923306,302.71902484681,0.5,5000.0,5.0,0.5
25,288.683593478178,300.033905659537,300.048860932892,300.063816206246,300.074118667638,300.056143045156,300.050658398036,300.050658398036,300.050658398036,302.72105932154,0.5,5000.0,5.0,0.5
26,288.685364571228,300.035409468109,300.049975618415,300.064541768721,300.077045419297,300.058388903797,300.052693320904,300.052693320904,300.052693320904,302.723094244408,0.5,5000.0,5.0,0.5
27,288.687147620435,300.036914902379,300.05108044361,300.065245984841,300.079387573305,300.060634785734,300.054728746683,300.054728746683,300.054728746683,302.725129670187,0.5,5000.0,5.0,0.5
28,288.688463489846,300.038351853304,300.052560417469,300.066768981633,300.080977545798,300.062880673962,300.05676472485,300.05676472485,300.05676472485,302.727165648354,0.5,5000.0,5.0,0.5
29,288.690275354003,300.039859814152,300.053638641974,300.067417469795,300.081196297617,300.065126572201,300.058801128708,300.058801128708,300.058801128708,302.729202052212,0.5,5000.0,5.0,0.5
30,288.691628436202,300.041300769843,300.055085775763,300.068870781684,300.082655787605,300.067372480584,300.060838065998,300.060838065998,300.060838065998,302.731238989501,0.5,5000.0,5.0,0.5
31,288.692997606981,300.042743327555,300.056518447606,300.070293567656,300.084068687707,300.069618398938,300.062875470875,300.062875470875,300.062875470875,302.733276394379,0.5,5000.0,5.0,0.5
32,288.69484337652,300.044251204134,300.057559138201,300.070867072268,300.084175006335,300.071864334262,300.064913282268,300.064913282268,300.064913282268,302.735314205772,0.5,5000.0,5.0,0.5
33,288.696240475776,300.045695147746,300.058963860471,300.072232573196,300.085501285921,300.074110272042,300.066951601638,300.066951601638,300.066951601638,302.737352525142,0.5,5000.0,5.0,0.5
34,288.697650159898,300.047139732684,300.060356022665,300.073572312647,300.086788602628,300.076356232066,300.068990367758,300.068990367758,300.068990367758,302.739391291262,0.5,5000.0,5.0,0.5
35,288.699071523894,300.048584708166,300.061736110649,300.074887513132,300.088038915616,300.078602197875,300.071029574284,300.071029574284,300.071029574284,302.741430497788,0.5,5000.0,5.0,0.5
36,288.700503701459,300.050029828826,300.063104578699,300.076179328571,300.089254078443,300.080848171207,300.073069215144,300.073069215144,300.073069215144,302.743470138648,0.5,5000.0,5.0,0.5
37,288.701945863239,300.051474854817,300.064461851629,300.07744884844,300.090435845252,300.083094162383,300.075109284522,300.075109284522,300.075109284522,302.745510208026,0.5,5000.0,5.0,0.5
38,288.703397215182,300.052919551893,300.065808326776,300.07869710166,300.091585876544,300.085340161084,300.077149776842,300.077149776842,300.077149776842,302.747550700346,0.5,5000.0,5.0,0.5
39,288.704856996979,300.054363691467,300.067144375841,300.079925060214,300.092705744588,300.087586170529,300.079190686748,300.079190686748,300.079190686748,302.749591610252,0.5,5000.0,5.0,0.5
40,288.706324480573,300.055807050652,300.068470346597,300.081133642541,300.093796938486,300.089832193251,300.081232009093,300.081232009093,300.081232009093,302.751632932597,0.5,5000.0,5.0,0.5
41,288.707798968758,300.057249412277,300.069786564489,300.082323716701,300.094860868913,300.092078221801,300.083273738925,300.083273738925,300.083273738925,302.753674662428,0.5,5000.0,5.0,0.5
42,288.70927979419,300.058690564934,300.071093333799,300.083496102664,300.095898871529,300.094324266421,300.085315871473,300.085315871473,300.085315871473,302.755716794977,0.5,5000.0,5.0,0.5
43,288.71076632055,300.060130303205,300.072390936842,300.08465157048,300.096912204118,300.096570322165,300.087358402141,300.087358402141,300.087358402141,302.757759325645,0.5,5000.0,5.0,0.5
44,288.712257932304,300.06156842669,300.073679643266,300.085790859841,300.097902076417,300.098816371564,300.089401326494,300.089401326494,300.089401326494,302.759802249998,0.5,5000.0,5.0,0.5
45,288.713754042914,300.063004740995,300.074959703005,300.086914665015,300.098869627024,300.101062371837,300.09144464025,300.09144464025,300.09144464025,302.761845563754,0.5,5000.0,5.0,0.5
46,288.715254090615,300.064439057334,300.076231350136,300.088023642938,300.09981593574,300.103308030491,300.093488339269,300.093488339269,300.093488339269,302.763889262773,0.5,5000.0,5.0,0.5
47,288.716350423344,300.065837369913,300.077874441377,300.08991151284,300.101948584304,300.105554034277,300.095532453902,300.095532453902,300.095532453902,302.765933377406,0.5,5000.0,5.0,0.5
48,288.71786253305,300.067270113258,300.079129589138,300.090989065019,300.102848540899,300.10779780376,300.097576909855,300.097576909855,300.097576909855,302.767977833358,0.5,5000.0,5.0,0.5
49,288.719377216629,300.068700419715,300.080376931468,300.092053443221,300.103729954974,300.110034310706,300.099621739398,300.099621739398,300.099621739398,302.770022662902,0.5,5000.0,5.0,0.5
50,288.720490843952,300.070099788881,300.082003118979,300.093906449077,300.105809779174,300.112278948671,300.101666970042,300.101666970042,300.101666970042,302.772067893545,0.5,5000.0,5.0,0.5
51,288.722015657141,300.071527940199,300.083234904252,300.094941868305,300.106648832358,300.114487426275,300.103712534135,300.103712534135,300.103712534135,302.774113457639,0.5,5000.0,5.0,0.5
52,288.723541804027,300.072953242456,300.084459410228,300.095965578001,300.107471745773,300.116617262017,300.105758461168,300.105758461168,300.105758461168,302.776159384671,0.5,5000.0,5.0,0.5
53,288.724671474011,300.074353359158,300.086069443345,300.097785527532,300.109501611718,300.118850774196,300.107804775519,300.107804775519,300.107804775519,302.778205699023,0.5,5000.0,5.0,0.5
54,288.726205972894,300.075775955673,300.087279228341,300.098782501008,300.110285773676,300.120766490957,300.10985141641,300.10985141641,300.10985141641,302.780252339914,0.5,5000.0,5.0,0.5
55,288.727740677732,300.07719531747,300.088482190354,300.099769063238,300.111055936122,300.12223862339,300.11189840902,300.11189840902,300.11189840902,302.782299332524,0.5,5000.0,5.0,0.5
56,288.728885212178,300.07859588265,300.09007675754,300.101557632431,300.113038507322,300.124425484669,300.113945777013,300.113945777013,300.113945777013,302.784346700517,0.5,5000.0,5.0,0.5
57,288.730426633564,300.080012020876,300.091265744828,300.10251946878,300.113773192732,300.125026916684,300.115993454493,300.115993454493,300.115993454493,302.786394377997,0.5,5000.0,5.0,0.5
58,288.731578289916,300.081412659916,300.092852614207,300.104292568498,300.115732522789,300.12717247708,300.118041507478,300.118041507478,300.118041507478,302.788442430982,0.5,5000.0,5.0,0.5
59,288.733125525416,300.082825299377,300.094028060046,300.105230820715,300.116433581384,300.127636342053,300.120089808152,300.120089808152,300.120089808152,302.790490731656,0.5,5000.0,5.0,0.5
60,288.734284023997,300.084225942724,300.095607397969,300.106988853214,300.118370308459,300.129751763704,300.122138524286,300.122138524286,300.122138524286,302.792539447789,0.5,5000.0,5.0,0.5
61,288.735836210453,300.085634851243,300.096769780068,300.107904708893,300.119039637718,300.130174566543,300.124187192109,300.124187192109,300.124187192109,302.794588115613,0.5,5000.0,5.0,0.5
62,288.737001280073,300.087035436438,300.098341758002,300.109648079566,300.12095440113,300.132260722694,300.126236516759,300.126236516759,300.126236516759,302.796637440263,0.5,5000.0,5.0,0.5
63,288.738557591934,300.088440532353,300.099491819531,300.110543106709,300.121594393887,300.132645681065,300.128284491335,300.128284491335,300.128284491335,302.798685414838,0.5,5000.0,5.0,0.5
64,288.739728969583,300.089841018759,300.101056644422,300.112272270086,300.12348789575,300.134703521413,300.130334253659,300.130334253659,300.130334253659,302.800735177163,0.5,5000.0,5.0,0.5
65,288.741288617306,300.091242738596,300.102196145455,300.113149552314,300.124102959173,300.135056366033,300.132377593847,300.132377593847,300.132377593847,302.802778517351,0.5,5000.0,5.0,0.5
66,288.742462514655,300.092643147461,300.10375803502,300.11487292258,300.125987810139,300.137102697698,300.134427384904,300.134427384904,300.134427384904,302.804828308408,0.5,5000.0,5.0,0.5
67,288.74402077199,300.09404350241,300.104896284249,300.115749066089,300.126601847928,300.137454629767,300.136453930502,300.136453930502,300.136453930502,302.806854854006,0.5,5000.0,5.0,0.5
68,288.74519979944,300.095444001794,300.10645270473,300.117461407666,300.128470110601,300.139478813537,300.138502609617,300.138502609617,300.138502609617,302.808903533121,0.5,5000.0,5.0,0.5
69,288.746760176406,300.096848730052,300.107597534548,300.118346339045,300.129095143541,300.139843948037,300.140478903057,300.140478903057,300.140478903057,302.81087982656,0.5,5000.0,5.0,0.5
70,288.747944724394,300.098249707139,300.109148845178,300.120047983217,300.130947121256,300.141846259295,300.142523916768,300.142523916768,300.142523916768,302.812924840272,0.5,5000.0,5.0,0.5
71,288.749506542279,300.099671562734,300.110327008778,300.120982454822,300.131637900866,300.14229334691,300.144376788333,300.144376788333,300.144376788333,302.814777711836,0.5,5000.0,5.0,0.5
72,288.750696390748,300.101073706533,300.111874856911,300.12267600729,300.133477157668,300.144278308047,300.146413887393,300.146413887393,300.146413887393,302.816814810897,0.5,5000.0,5.0,0.5
73,288.752259000576,300.102529682567,300.11312171813,300.123713753693,300.134305789256,300.144897824819,300.148044860022,300.148044860022,300.148044860022,302.818445783526,0.5,5000.0,5.0,0.5
74,288.75345393564,300.103933583445,300.114667543195,300.125401502945,300.136135462695,300.146869422445,300.150070250071,300.150070250071,300.150070250071,302.820471173575,0.5,5000.0,5.0,0.5
75,288.755016716273,300.105424975035,300.11598642718,300.126547879324,300.137109331468,300.147670783613,300.151465357405,300.151465357405,300.151465357405,302.821866280909,0.5,5000.0,5.0,0.5
76,288.756216526628,300.106830566027,300.117530325464,300.1282300849,300.138929844337,300.149629603773,300.153478818688,300.153478818688,300.153478818688,302.823879742192,0.5,5000.0,5.0,0.5
77,288.779093293228,300.120794595145,300.120794595145,300.120794595145,300.120794595145,300.120794595145,300.120794595145,300.120794595145,300.120794595145,302.791195518649,0.5,5000.0,5.0,0.5
78,288.780571677809,300.122362520831,300.122362520831,300.122362520831,300.122362520831,300.122362520831,300.122362520831,300.122362520831,300.122362520831,302.792763444335,0.5,5000.0,5.0,0.5
79,288.782050041753,300.123930425103,300.123930425103,300.123930425103,300.123930425103,300.123930425103,300.123930425103,300.123930425103,300.123930425103,302.794331348607,0.5,5000.0,5.0,0.5
80,288.783528385062,300.125498307961,300.125498307961,300.125498307961,300.125498307961,300.125498307961,300.125498307961,300.125498307961,300.125498307961,302.795899231465,0.5,5000.0,5.0,0.5
81,288.785006707736,300.127066169405,300.127066169405,300.127066169405,300.127066169405,300.127066169405,300.127066169405,300.127066169405,300.127066169405,302.797467092909,0.5,5000.0,5.0,0.5
82,288.786485009775,300.128634009435,300.128634009435,300.128634009435,300.128634009435,300.128634009435,300.128634009435,300.128634009435,300.128634009435,302.799034932939,0.5,5000.0,5.0,0.5
83,288.787963291178,300.130201828052,300.130201828052,300.130201828052,300.130201828052,300.130201828052,300.130201828052,300.130201828052,300.130201828052,302.800602751556,0.5,5000.0,5.0,0.5
84,288.789441551946,300.131769625254,300.131769625254,300.131769625254,300.131769625254,300.131769625254,300.131769625254,300.131769625254,300.131769625254,302.802170548758,0.5,5000.0,5.0,0.5
85,288.79091979208,300.133337401044,300.133337401044,300.133337401044,300.133337401044,300.133337401044,300.133337401044,300.133337401044,300.133337401044,302.803738324547,0.5,5000.0,5.0,0.5
86,288.792398011578,300.13490515542,300.13490515542,300.13490515542,300.13490515542,300.13490515542,300.13490515542,300.13490515542,300.13490515542,302.805306078923,0.5,5000.0,5.0,0.5
87,288.793876210443,300.136472888382,300.136472888382,300.136472888382,300.136472888382,300.136472888382,300.136472888382,300.136472888382,300.136472888382,302.806873811886,0.5,5000.0,5.0,0.5
88,288.795354388673,300.138040599932,300.138040599932,300.138040599932,300.138040599932,300.138040599932,300.138040599932,300.138040599932,300.138040599932,302.808441523436,0.5,5000.0,5.0,0.5
89,288.796832546268,300.139608290069,300.139608290069,300.139608290069,300.139608290069,300.139608290069,300.139608290069,300.139608290069,300.139608290069,302.810009213572,0.5,5000.0,5.0,0.5
90,288.79831068323,300.141175958792,300.141175958792,300.141175958792,300.141175958792,300.141175958792,300.141175958792,300.141175958792,300.141175958792,302.811576882296,0.5,5000.0,5.0,0.5
91,288.799788799557,300.142743606103,300.142743606103,300.142743606103,300.142743606103,300.142743606103,300.142743606103,300.142743606103,300.142743606103,302.813144529607,0.5,5000.0,5.0,0.5
92,288.80126689525,300.144311232002,300.144311232002,300.144311232002,300.144311232002,300.144311232002,300.144311232002,300.144311232002,300.144311232002,302.814712155506,0.5,5000.0,5.0,0.5
93,288.80274497031,300.145878836488,300.145878836488,300.145878836488,300.145878836488,300.145878836488,300.145878836488,300.145878836488,300.145878836488,302.816279759992,0.5,5000.0,5.0,0.5
94,288.804223024736,300.147446419562,300.147446419562,300.147446419562,300.147446419562,300.147446419562,300.147446419562,300.147446419562,300.147446419562,302.817847343066,0.5,5000.0,5.0,0.5
95,288.805701058529,300.149013981223,300.149013981223,300.149013981223,300.149013981223,300.149013981223,300.149013981223,300.149013981223,300.149013981223,302.819414904727,0.5,5000.0,5.0,0.5
96,288.807179071688,300.150581521473,300.150581521473,300.150581521473,300.150581521473,300.150581521473,300.150581521473,300.150581521473,300.150581521473,302.820982444977,0.5,5000.0,5.0,0.5
97,288.808657064215,300.152149040311,300.152149040311,300.152149040311,300.152149040311,300.152149040311,300.152149040311,300.152149040311,300.152149040311,302.822549963814,0.5,5000.0,5.0,0.5
98,288.810135036108,300.153716537737,300.153716537737,300.153716537737,300.153716537736,300.153716537736,300.153716537736,300.153716537736,300.153716537736,302.82411746124,0.5,5000.0,5.0,0.5
99,288.811612987368,300.15528401375,300.15528401375,300.15528401375,300.15528401375,300.15528401375,300.15528401375,300.15528401375,300.15528401375,302.825684937254,0.5,5000.0,5.0,0.5
100,288.813090917996,300.156851468353,300.156851468353,300.156851468353,300.156851468353,300.156851468353,300.156851468353,300.156851468353,300.156851468353,302.827252391857,0.5,5000.0,5.0,0.5
101,288.814568827991,300.158418901544,300.158418901544,300.158418901544,300.158418901544,300.158418901544,300.158418901544,300.158418901544,300.158418901544,302.828819825048,0.5,5000.0,5.0,0.5
102,288.816046717353,300.159986313324,300.159986313324,300.159986313324,300.159986313324,300.159986313324,300.159986313324,300.159986313324,300.159986313324,302.830387236828,0.5,5000.0,5.0,0.5
103,288.817524586083,300.161553703693,300.161553703693,300.161553703693,300.161553703693,300.161553703693,300.161553703693,300.161553703693,300.161553703693,302.831954627197,0.5,5000.0,5.0,0.5
104,288.819002434181,300.163121072651,300.163121072651,300.163121072651,300.163121072651,300.163121072651,300.163121072651,300.163121072651,300.163121072651,302.833521996155,0.5,5000.0,5.0,0.5
