Time,TC1_tip,TC2,TC3,TC4,TC5,TC6,TC7,TC8,TC9,TC10,h,flux,abs,surf
429,359.39,358.73,358.61,359.15,358.48,360.28,358.15,358.81,356.29,331.71,0.1575,19400,3,0.98
430,359.41,358.78,358.62,359.17,358.48,360.3,358.28,359.01,356.33,331.59,0.1575,19400,3,0.98
431,359.48,358.9,358.67,359.21,358.49,360.33,358.45,359.24,356.47,331.52,0.1575,19400,3,0.98
432,359.55,359.03,358.74,359.29,358.53,360.38,358.65,359.43,356.65,331.53,0.1575,19400,3,0.98
433,359.65,359.22,358.84,359.39,358.62,360.46,358.9,359.61,356.93,331.67,0.1575,19400,3,0.98
434,359.74,359.41,358.95,359.46,358.72,360.51,359.15,359.73,357.2,331.87,0.1575,19400,3,0.98
435,359.82,359.51,359.03,359.54,358.81,360.56,359.24,359.88,357.38,332.0,0.1575,19400,3,0.98
436,359.9,359.61,359.11,359.67,358.9,360.61,359.3,360.02,357.55,332.11,0.1575,19400,3,0.98
437,359.95,359.7,359.18,359.76,358.98,360.66,359.38,360.13,357.69,332.19,0.1575,19400,3,0.98
438,360.01,359.78,359.25,359.86,359.07,360.71,359.46,360.24,357.81,332.27,0.1575,19400,3,0.98
439,360.05,359.85,359.31,359.97,359.15,360.76,359.54,360.29,357.93,332.33,0.1575,19400,3,0.98
440,360.09,359.92,359.38,360.06,359.24,360.8,359.62,360.24,358.05,332.38,0.1575,19400,3,0.98
441,360.12,359.98,359.43,360.13,359.31,360.85,359.67,360.21,358.16,332.42,0.1575,19400,3,0.98
442,360.18,360.08,359.51,360.23,359.45,360.93,359.76,360.22,358.29,332.47,0.1575,19400,3,0.98
443,360.25,360.18,359.57,360.32,359.56,361.03,359.89,360.28,358.34,332.59,0.1575,19400,3,0.98
444,360.3,360.23,359.63,360.4,359.64,361.14,359.99,360.36,358.36,332.74,0.1575,19400,3,0.98
445,360.36,360.27,359.69,360.47,359.7,361.22,360.1,360.44,358.39,332.9,0.1575,19400,3,0.98
446,360.41,360.28,359.74,360.53,359.72,361.27,360.22,360.53,358.43,333.04,0.1575,19400,3,0.98
447,360.45,360.31,359.79,360.6,359.71,361.31,360.32,360.66,358.51,333.2,0.1575,19400,3,0.98
448,360.49,360.32,359.83,360.64,359.71,361.32,360.35,360.75,358.55,333.37,0.1575,19400,3,0.98
449,360.51,360.32,359.87,360.69,359.71,361.33,360.34,360.79,358.56,333.54,0.1575,19400,3,0.98
450,360.53,360.29,359.91,360.74,359.73,361.33,360.36,360.73,358.59,333.72,0.1575,19400,3,0.98
451,360.52,360.18,359.96,360.78,359.78,361.36,360.27,360.65,358.7,333.97,0.1575,19400,3,0.98
452,360.52,360.08,359.97,360.82,359.85,361.38,360.1,360.54,358.82,334.23,0.1575,19400,3,0.98
453,360.51,360.06,359.96,360.86,359.9,361.42,360.01,360.42,358.88,334.39,0.1575,19400,3,0.98
454,360.51,360.05,359.95,360.87,359.95,361.45,359.97,360.37,358.97,334.56,0.1575,19400,3,0.98
455,360.54,360.08,359.91,360.88,359.99,361.46,360.02,360.33,359.06,334.71,0.1575,19400,3,0.98
456,360.58,360.11,359.88,360.87,360.0,361.48,360.08,360.28,359.14,334.84,0.1575,19400,3,0.98
457,360.61,360.15,359.85,360.86,360.0,361.5,360.1,360.28,359.18,334.94,0.1575,19400,3,0.98
458,360.65,360.16,359.83,360.85,359.97,361.48,360.11,360.33,359.21,335.01,0.1575,19400,3,0.98
459,360.69,360.11,359.83,360.82,359.96,361.47,360.13,360.46,359.23,335.06,0.1575,19400,3,0.98
460,360.75,360.03,359.82,360.79,359.88,361.46,360.2,360.61,359.28,335.13,0.1575,19400,3,0.98
461,360.82,360.0,359.82,360.76,359.79,361.45,360.27,360.65,359.28,335.21,0.1575,19400,3,0.98
462,360.86,360.0,359.82,360.73,359.74,361.46,360.32,360.61,359.27,335.28,0.1575,19400,3,0.98
463,360.88,360.02,359.82,360.69,359.69,361.46,360.33,360.52,359.27,335.35,0.1575,19400,3,0.98
464,360.91,360.06,359.81,360.66,359.67,361.48,360.32,360.47,359.25,335.43,0.1575,19400,3,0.98
465,360.93,360.07,359.8,360.62,359.64,361.48,360.31,360.43,359.2,335.53,0.1575,19400,3,0.98
466,360.94,360.08,359.8,360.59,359.64,361.47,360.3,360.4,359.14,335.66,0.1575,19400,3,0.98
467,360.91,360.09,359.81,360.59,359.64,361.45,360.29,360.36,359.08,335.8,0.1575,19400,3,0.98
468,360.89,360.08,359.79,360.58,359.65,361.45,360.27,360.31,358.95,336.04,0.1575,19400,3,0.98
469,360.89,360.09,359.77,360.6,359.67,361.44,360.23,360.24,358.82,336.26,0.1575,19400,3,0.98
470,360.9,360.09,359.77,360.63,359.7,361.47,360.22,360.16,358.72,336.41,0.1575,19400,3,0.98
471,360.92,360.09,359.75,360.67,359.73,361.51,360.19,360.13,358.61,336.52,0.1575,19400,3,0.98
472,360.95,360.09,359.76,360.68,359.78,361.54,360.19,360.11,358.5,336.63,0.1575,19400,3,0.98
473,360.98,360.1,359.76,360.71,359.83,361.57,360.2,360.09,358.43,336.7,0.1575,19400,3,0.98
474,361.01,360.11,359.75,360.72,359.87,361.57,360.23,360.1,358.39,336.77,0.1575,19400,3,0.98
475,361.04,360.12,359.74,360.72,359.9,361.55,360.29,360.15,358.39,336.85,0.1575,19400,3,0.98
476,361.08,360.12,359.72,360.71,359.92,361.56,360.33,360.24,358.4,336.91,0.1575,19400,3,0.98
477,361.12,360.1,359.68,360.69,359.93,361.54,360.34,360.4,358.42,336.97,0.1575,19400,3,0.98
478,361.15,360.11,359.65,360.67,359.94,361.51,360.28,360.54,358.45,337.12,0.1575,19400,3,0.98
479,361.16,360.11,359.63,360.65,359.95,361.46,360.18,360.61,358.49,337.29,0.1575,19400,3,0.98
480,361.15,360.1,359.63,360.64,359.95,361.43,360.13,360.61,358.54,337.42,0.1575,19400,3,0.98
481,361.15,360.11,359.64,360.6,359.97,361.41,360.11,360.56,358.61,337.56,0.1575,19400,3,0.98
482,361.15,360.13,359.64,360.6,359.98,361.42,360.11,360.51,358.67,337.68,0.1575,19400,3,0.98
483,361.15,360.17,359.64,360.59,359.99,361.42,360.13,360.47,358.75,337.78,0.1575,19400,3,0.98
484,361.12,360.2,359.64,360.59,359.99,361.41,360.12,360.42,358.78,337.85,0.1575,19400,3,0.98
485,361.07,360.18,359.63,360.6,359.99,361.4,360.08,360.38,358.81,337.91,0.1575,19400,3,0.98
486,361.04,360.16,359.64,360.6,360.0,361.43,360.08,360.46,358.85,338.01,0.1575,19400,3,0.98
487,360.98,360.1,359.65,360.61,360.02,361.45,360.16,360.55,358.9,338.19,0.1575,19400,3,0.98
488,360.95,360.08,359.68,360.63,360.05,361.49,360.22,360.52,358.95,338.41,0.1575,19400,3,0.98
489,360.95,360.07,359.68,360.65,360.06,361.53,360.26,360.41,358.97,338.55,0.1575,19400,3,0.98
490,360.93,360.08,359.7,360.64,360.07,361.56,360.31,360.39,359.01,338.69,0.1575,19400,3,0.98
491,360.9,360.08,359.71,360.63,360.08,361.6,360.36,360.45,359.02,338.85,0.1575,19400,3,0.98
492,360.8,360.09,359.75,360.62,360.09,361.65,360.4,360.54,359.01,339.01,0.1575,19400,3,0.98
493,360.7,360.07,359.76,360.6,360.09,361.67,360.41,360.59,359.0,339.19,0.1575,19400,3,0.98
494,360.61,360.05,359.79,360.54,360.08,361.64,360.35,360.67,358.97,339.35,0.1575,19400,3,0.98
495,360.55,360.02,359.79,360.53,360.05,361.59,360.24,360.71,358.97,339.5,0.1575,19400,3,0.98
496,360.54,360.01,359.8,360.5,359.99,361.54,360.11,360.68,359.03,339.71,0.1575,19400,3,0.98
497,360.56,359.97,359.82,360.49,359.88,361.52,360.02,360.65,359.08,339.93,0.1575,19400,3,0.98
498,360.57,359.91,359.84,360.47,359.81,361.45,359.99,360.63,359.1,340.05,0.1575,19400,3,0.98
499,360.57,359.86,359.86,360.43,359.73,361.4,359.97,360.61,359.08,340.19,0.1575,19400,3,0.98
500,360.54,359.81,359.88,360.41,359.67,361.35,359.89,360.59,359.05,340.31,0.1575,19400,3,0.98
501,360.51,359.78,359.87,360.38,359.61,361.31,359.83,360.6,359.03,340.43,0.1575,19400,3,0.98
502,360.48,359.75,359.85,360.33,359.57,361.28,359.78,360.61,359.01,340.55,0.1575,19400,3,0.98
503,360.48,359.76,359.82,360.29,359.53,361.25,359.73,360.62,358.99,340.66,0.1575,19400,3,0.98
504,360.51,359.77,359.79,360.27,359.49,361.23,359.72,360.62,358.96,340.82,0.1575,19400,3,0.98
505,360.56,359.78,359.74,360.25,359.46,361.19,359.73,360.59,358.97,340.97,0.1575,19400,3,0.98
506,360.6,359.79,359.72,360.25,359.45,361.16,359.75,360.55,359.0,341.03,0.1575,19400,3,0.98
507,360.63,359.81,359.69,360.25,359.44,361.14,359.76,360.52,359.08,341.1,0.1575,19400,3,0.98
508,360.64,359.81,359.65,360.26,359.44,361.11,359.77,360.51,359.16,341.15,0.1575,19400,3,0.98
509,360.64,359.79,359.59,360.25,359.42,361.11,359.76,360.48,359.23,341.19,0.1575,19400,3,0.98
510,360.63,359.75,359.54,360.27,359.42,361.13,359.79,360.44,359.31,341.24,0.1575,19400,3,0.98
511,360.63,359.72,359.51,360.28,359.43,361.14,359.82,360.4,359.36,341.32,0.1575,19400,3,0.98
512,360.62,359.68,359.48,360.27,359.46,361.16,359.84,360.36,359.41,341.38,0.1575,19400,3,0.98
513,360.59,359.67,359.44,360.27,359.48,361.19,359.84,360.32,359.45,341.44,0.1575,19400,3,0.98
514,360.5,359.62,359.42,360.26,359.56,361.2,359.83,360.23,359.5,341.54,0.1575,19400,3,0.98
515,360.41,359.55,359.39,360.25,359.6,361.21,359.81,360.18,359.43,341.67,0.1575,19400,3,0.98
516,360.35,359.5,359.36,360.24,359.61,361.19,359.82,360.12,359.36,341.76,0.1575,19400,3,0.98
517,360.3,359.43,359.34,360.24,359.63,361.17,359.85,360.08,359.28,341.83,0.1575,19400,3,0.98
518,360.27,359.37,359.32,360.25,359.63,361.15,359.89,360.08,359.21,341.9,0.1575,19400,3,0.98
519,360.29,359.34,359.28,360.24,359.65,361.13,359.94,360.13,359.16,341.94,0.1575,19400,3,0.98
520,360.31,359.31,359.24,360.21,359.65,361.11,359.98,360.23,359.11,341.95,0.1575,19400,3,0.98
521,360.34,359.31,359.23,360.18,359.67,361.09,360.02,360.25,359.08,341.96,0.1575,19400,3,0.98
522,360.37,359.33,359.21,360.16,359.67,361.08,360.03,360.2,358.96,341.95,0.1575,19400,3,0.98
523,360.42,359.34,359.18,360.12,359.68,361.06,360.03,360.1,358.8,341.94,0.1575,19400,3,0.98
524,360.45,359.38,359.15,360.08,359.69,361.07,360.04,360.02,358.71,341.97,0.1575,19400,3,0.98
525,360.46,359.41,359.15,360.04,359.7,361.07,360.04,359.97,358.65,342.0,0.1575,19400,3,0.98
526,360.45,359.42,359.15,360.03,359.7,361.08,360.04,359.87,358.59,342.03,0.1575,19400,3,0.98
527,360.45,359.42,359.15,360.02,359.71,361.1,360.01,359.78,358.58,342.06,0.1575,19400,3,0.98
528,360.4,359.37,359.18,360.02,359.71,361.11,360.02,359.79,358.59,342.09,0.1575,19400,3,0.98
529,360.37,359.31,359.19,360.03,359.71,361.12,360.02,359.81,358.59,342.11,0.1575,19400,3,0.98
530,360.34,359.29,359.21,360.03,359.69,361.13,360.02,359.8,358.6,342.12,0.1575,19400,3,0.98
531,360.26,359.3,359.19,360.03,359.65,361.15,360.05,359.86,358.58,342.14,0.1575,19400,3,0.98
532,360.16,359.28,359.15,360.03,359.63,361.15,360.09,359.95,358.56,342.17,0.1575,19400,3,0.98
533,360.08,359.28,359.09,359.99,359.62,361.17,360.12,360.11,358.55,342.18,0.1575,19400,3,0.98
534,360.03,359.29,359.03,359.95,359.59,361.18,360.13,360.25,358.54,342.18,0.1575,19400,3,0.98
535,360.04,359.27,358.99,359.9,359.58,361.17,360.14,360.38,358.56,342.19,0.1575,19400,3,0.98
536,360.04,359.23,358.97,359.85,359.56,361.19,360.12,360.46,358.6,342.2,0.1575,19400,3,0.98
537,360.02,359.15,358.96,359.83,359.53,361.2,360.07,360.43,358.65,342.21,0.1575,19400,3,0.98
538,359.99,359.07,358.96,359.81,359.5,361.2,360.03,360.38,358.72,342.23,0.1575,19400,3,0.98
539,359.95,358.97,358.96,359.82,359.46,361.2,359.98,360.35,358.8,342.24,0.1575,19400,3,0.98
540,359.91,358.89,358.98,359.8,359.44,361.2,359.94,360.3,358.87,342.26,0.1575,19400,3,0.98
541,359.79,358.76,359.02,359.79,359.41,361.19,359.93,360.25,358.94,342.3,0.1575,19400,3,0.98
542,359.68,358.63,359.07,359.77,359.39,361.19,359.97,360.21,358.99,342.34,0.1575,19400,3,0.98
543,359.61,358.58,359.07,359.74,359.37,361.17,359.99,360.14,358.98,342.37,0.1575,19400,3,0.98
544,359.58,358.57,359.06,359.71,359.34,361.15,359.97,360.03,358.95,342.44,0.1575,19400,3,0.98
545,359.56,358.56,359.01,359.68,359.33,361.14,359.93,359.94,358.89,342.53,0.1575,19400,3,0.98
546,359.55,358.54,358.94,359.66,359.31,361.14,359.89,359.91,358.84,342.63,0.1575,19400,3,0.98
547,359.56,358.49,358.88,359.65,359.3,361.13,359.86,359.9,358.82,342.72,0.1575,19400,3,0.98
548,359.59,358.46,358.84,359.65,359.28,361.14,359.85,359.87,358.8,342.79,0.1575,19400,3,0.98
549,359.61,358.44,358.8,359.64,359.26,361.15,359.81,359.8,358.73,342.82,0.1575,19400,3,0.98
550,359.68,358.48,358.79,359.65,359.24,361.16,359.76,359.71,358.65,342.86,0.1575,19400,3,0.98
551,359.67,358.49,358.8,359.67,359.23,361.16,359.7,359.63,358.62,342.86,0.1575,19400,3,0.98
552,359.65,358.49,358.81,359.67,359.24,361.16,359.67,359.6,358.63,342.85,0.1575,19400,3,0.98
553,359.6,358.48,358.82,359.68,359.22,361.18,359.62,359.58,358.67,342.85,0.1575,19400,3,0.98
554,359.54,358.47,358.83,359.69,359.21,361.18,359.54,359.63,358.67,342.82,0.1575,19400,3,0.98
555,359.47,358.45,358.84,359.69,359.2,361.2,359.5,359.71,358.66,342.82,0.1575,19400,3,0.98
556,359.41,358.42,358.85,359.68,359.18,361.21,359.52,359.75,358.64,342.84,0.1575,19400,3,0.98
557,359.37,358.4,358.86,359.68,359.16,361.22,359.51,359.77,358.59,342.87,0.1575,19400,3,0.98
558,359.35,358.41,358.87,359.66,359.14,361.2,359.46,359.77,358.57,342.89,0.1575,19400,3,0.98
559,359.31,358.44,358.9,359.65,359.13,361.17,359.44,359.81,358.48,342.89,0.1575,19400,3,0.98
560,359.29,358.5,358.93,359.64,359.11,361.16,359.5,359.85,358.33,342.89,0.1575,19400,3,0.98
561,359.29,358.54,358.95,359.59,359.11,361.14,359.55,359.9,358.23,342.91,0.1575,19400,3,0.98
562,359.28,358.6,358.96,359.55,359.11,361.13,359.56,360.02,358.19,342.94,0.1575,19400,3,0.98
563,359.28,358.64,358.95,359.52,359.09,361.11,359.57,360.12,358.21,342.97,0.1575,19400,3,0.98
564,359.31,358.67,358.96,359.51,359.08,361.09,359.61,360.11,358.28,342.99,0.1575,19400,3,0.98
565,359.31,358.65,358.97,359.51,359.07,361.05,359.69,360.09,358.38,343.01,0.1575,19400,3,0.98
566,359.29,358.61,358.99,359.52,359.06,361.02,359.79,360.1,358.45,343.01,0.1575,19400,3,0.98
567,359.27,358.47,358.98,359.54,359.08,361.01,359.91,360.12,358.46,343.02,0.1575,19400,3,0.98
568,359.24,358.34,358.99,359.53,359.1,360.97,360.0,360.18,358.43,343.06,0.1575,19400,3,0.98
569,359.19,358.23,358.97,359.52,359.11,360.95,360.03,360.26,358.38,343.12,0.1575,19400,3,0.98
570,359.14,358.16,358.97,359.52,359.12,360.93,360.06,360.31,358.31,343.18,0.1575,19400,3,0.98
571,359.11,358.14,358.96,359.52,359.13,360.91,360.07,360.33,358.25,343.23,0.1575,19400,3,0.98
572,359.08,358.14,358.94,359.5,359.12,360.91,360.05,360.31,358.12,343.28,0.1575,19400,3,0.98
573,359.07,358.17,358.91,359.46,359.12,360.9,360.03,360.24,357.99,343.32,0.1575,19400,3,0.98
574,359.06,358.18,358.89,359.42,359.1,360.91,359.98,360.2,357.88,343.36,0.1575,19400,3,0.98
575,359.04,358.21,358.86,359.38,359.09,360.92,359.92,360.17,357.83,343.4,0.1575,19400,3,0.98
576,359.02,358.22,358.83,359.35,359.08,360.93,359.86,360.17,357.77,343.43,0.1575,19400,3,0.98
577,359.04,358.24,358.83,359.33,359.06,360.93,359.82,360.2,357.71,343.5,0.1575,19400,3,0.98
578,359.05,358.22,358.85,359.34,359.04,360.93,359.82,360.23,357.64,343.54,0.1575,19400,3,0.98
579,359.07,358.19,358.84,359.35,359.02,360.92,359.82,360.22,357.59,343.55,0.1575,19400,3,0.98
580,359.11,358.17,358.83,359.36,359.02,360.89,359.79,360.12,357.56,343.54,0.1575,19400,3,0.98
581,359.14,358.17,358.84,359.38,359.03,360.88,359.79,360.08,357.56,343.53,0.1575,19400,3,0.98
582,359.11,358.15,358.84,359.39,359.03,360.87,359.77,360.02,357.58,343.53,0.1575,19400,3,0.98
583,359.07,358.09,358.84,359.4,359.03,360.86,359.75,359.98,357.62,343.57,0.1575,19400,3,0.98
584,359.05,358.01,358.84,359.39,359.03,360.85,359.72,359.99,357.69,343.61,0.1575,19400,3,0.98
585,359.06,357.95,358.84,359.4,359.04,360.85,359.72,359.97,357.78,343.66,0.1575,19400,3,0.98
586,359.07,357.9,358.86,359.41,359.02,360.85,359.72,359.99,357.89,343.73,0.1575,19400,3,0.98
587,359.03,357.9,358.86,359.42,359.01,360.83,359.74,360.02,357.9,343.75,0.1575,19400,3,0.98
588,359.0,357.93,358.86,359.43,358.98,360.81,359.76,360.06,357.88,343.74,0.1575,19400,3,0.98
589,358.98,357.96,358.87,359.43,358.98,360.79,359.81,360.15,357.9,343.71,0.1575,19400,3,0.98
590,358.98,358.0,358.88,359.43,358.97,360.77,359.86,360.2,357.96,343.67,0.1575,19400,3,0.98
591,358.99,358.04,358.9,359.43,358.96,360.78,359.89,360.2,357.97,343.6,0.1575,19400,3,0.98
592,359.02,358.07,358.92,359.42,358.97,360.78,359.93,360.2,357.99,343.56,0.1575,19400,3,0.98
593,359.03,358.11,358.92,359.41,358.96,360.79,359.93,360.16,357.97,343.51,0.1575,19400,3,0.98
594,359.05,358.1,358.93,359.41,358.97,360.82,359.92,360.1,357.99,343.45,0.1575,19400,3,0.98
595,359.11,358.11,358.94,359.42,358.98,360.82,359.91,360.07,357.95,343.38,0.1575,19400,3,0.98
596,359.18,358.09,358.93,359.42,358.99,360.85,359.94,360.03,357.83,343.29,0.1575,19400,3,0.98
597,359.21,358.06,358.94,359.43,358.98,360.86,359.98,360.01,357.73,343.21,0.1575,19400,3,0.98
598,359.23,358.06,358.96,359.44,358.99,360.89,360.01,360.04,357.63,343.13,0.1575,19400,3,0.98
599,359.22,358.06,358.97,359.45,359.02,360.92,360.04,360.07,357.51,343.04,0.1575,19400,3,0.98
600,359.18,357.96,358.97,359.45,359.03,360.95,360.05,360.02,357.38,342.92,0.1575,19400,3,0.98
601,359.09,357.9,358.98,359.45,359.04,360.99,360.08,360.01,357.25,342.81,0.1575,19400,3,0.98
602,359.02,357.87,358.98,359.47,359.06,361.02,360.08,360.03,357.2,342.75,0.1575,19400,3,0.98
603,358.97,357.86,358.96,359.49,359.08,361.05,360.01,360.1,357.18,342.74,0.1575,19400,3,0.98
604,358.96,357.88,358.96,359.5,359.11,361.06,359.86,360.11,357.2,342.77,0.1575,19400,3,0.98
605,358.97,357.9,358.97,359.52,359.13,361.06,359.76,360.07,357.23,342.79,0.1575,19400,3,0.98
606,358.98,357.95,358.98,359.53,359.15,361.05,359.68,360.02,357.28,342.8,0.1575,19400,3,0.98
607,358.97,357.95,358.99,359.55,359.18,361.05,359.64,360.0,357.34,342.8,0.1575,19400,3,0.98
608,358.98,357.93,359.0,359.57,359.19,361.05,359.63,360.04,357.35,342.77,0.1575,19400,3,0.98
609,358.98,357.91,359.01,359.59,359.21,361.04,359.65,360.06,357.36,342.77,0.1575,19400,3,0.98
610,358.98,357.88,359.0,359.58,359.24,361.04,359.7,360.05,357.4,342.78,0.1575,19400,3,0.98
611,358.94,357.84,358.96,359.56,359.26,361.04,359.74,360.06,357.48,342.79,0.1575,19400,3,0.98
612,358.84,357.75,358.91,359.53,359.27,361.04,359.79,360.08,357.68,342.82,0.1575,19400,3,0.98
613,358.71,357.62,358.88,359.49,359.27,361.05,359.82,360.13,357.92,342.87,0.1575,19400,3,0.98
614,358.68,357.55,358.87,359.45,359.25,361.03,359.8,360.15,358.09,342.92,0.1575,19400,3,0.98
615,358.65,357.52,358.86,359.41,359.23,361.02,359.8,360.12,358.24,342.99,0.1575,19400,3,0.98
616,358.65,357.49,358.85,359.38,359.2,361.02,359.8,360.05,358.35,343.04,0.1575,19400,3,0.98
617,358.62,357.47,358.84,359.33,359.18,360.99,359.81,359.92,358.43,343.09,0.1575,19400,3,0.98
618,358.58,357.48,358.84,359.28,359.15,360.95,359.78,359.77,358.48,343.1,0.1575,19400,3,0.98
619,358.57,357.51,358.85,359.23,359.13,360.91,359.76,359.67,358.55,343.11,0.1575,19400,3,0.98
620,358.56,357.54,358.86,359.19,359.1,360.87,359.74,359.58,358.57,343.09,0.1575,19400,3,0.98
621,358.59,357.56,358.88,359.13,359.04,360.81,359.73,359.49,358.47,343.07,0.1575,19400,3,0.98
622,358.63,357.58,358.9,359.1,358.99,360.76,359.73,359.48,358.26,343.06,0.1575,19400,3,0.98
623,358.69,357.6,358.92,359.06,358.95,360.7,359.7,359.49,357.96,343.06,0.1575,19400,3,0.98
624,358.75,357.58,358.92,359.02,358.91,360.66,359.66,359.52,357.64,343.06,0.1575,19400,3,0.98
625,358.79,357.54,358.92,359.0,358.87,360.63,359.56,359.53,357.34,343.06,0.1575,19400,3,0.98
626,358.83,357.51,358.91,358.97,358.84,360.6,359.44,359.62,357.11,343.05,0.1575,19400,3,0.98
627,358.85,357.49,358.91,358.94,358.79,360.59,359.33,359.79,356.96,343.03,0.1575,19400,3,0.98
628,358.89,357.49,358.9,358.93,358.7,360.58,359.27,359.91,356.83,342.96,0.1575,19400,3,0.98
629,358.91,357.5,358.88,358.92,358.62,360.56,359.27,360.01,356.7,342.9,0.1575,19400,3,0.98
630,358.98,357.5,358.87,358.91,358.54,360.55,359.3,360.04,356.58,342.83,0.1575,19400,3,0.98
631,358.99,357.51,358.86,358.88,358.5,360.54,359.34,360.0,356.53,342.81,0.1575,19400,3,0.98
632,358.96,357.49,358.85,358.85,358.51,360.54,359.39,359.83,356.51,342.8,0.1575,19400,3,0.98
633,358.98,357.47,358.86,358.86,358.52,360.57,359.45,359.69,356.48,342.79,0.1575,19400,3,0.98
634,359.0,357.46,358.87,358.86,358.54,360.59,359.5,359.61,356.45,342.74,0.1575,19400,3,0.98
635,359.05,357.43,358.86,358.87,358.56,360.61,359.52,359.6,356.43,342.67,0.1575,19400,3,0.98
636,359.07,357.38,358.85,358.87,358.58,360.63,359.54,359.66,356.4,342.58,0.1575,19400,3,0.98
637,359.12,357.34,358.84,358.89,358.6,360.65,359.53,359.7,356.36,342.48,0.1575,19400,3,0.98
638,359.16,357.27,358.82,358.89,358.63,360.68,359.46,359.75,356.35,342.41,0.1575,19400,3,0.98
639,359.2,357.22,358.81,358.92,358.64,360.71,359.4,359.75,356.34,342.33,0.1575,19400,3,0.98
640,359.21,357.18,358.79,358.96,358.63,360.73,359.46,359.76,356.36,342.23,0.1575,19400,3,0.98
641,359.2,357.18,358.78,359.0,358.62,360.75,359.55,359.8,356.48,342.16,0.1575,19400,3,0.98
642,359.18,357.15,358.78,359.06,358.61,360.75,359.6,359.83,356.58,342.16,0.1575,19400,3,0.98
