Time,TC1_tip,TC2,TC3,TC4,TC5,TC6,TC7,TC8,TC9,TC10,h,flux,abs,surf
617,359.75,359.03,359.76,360.24,359.68,361.45,358.93,359.55,357.07,333.49,0.1575,25900,3,0.98
618,359.7,359.02,359.75,360.27,359.67,361.47,358.98,359.77,357.08,333.26,0.1575,25900,3,0.98
619,359.79,359.22,359.82,360.32,359.74,361.51,359.31,360.01,357.42,333.09,0.1575,25900,3,0.98
620,359.93,359.45,359.94,360.47,359.86,361.59,359.71,360.38,357.88,333.03,0.1575,25900,3,0.98
621,360.04,359.55,360.04,360.63,359.96,361.7,359.96,360.71,358.16,333.0,0.1575,25900,3,0.98
622,360.15,359.66,360.13,360.8,360.07,361.82,360.2,360.99,358.48,332.97,0.1575,25900,3,0.98
623,360.2,359.73,360.22,360.96,360.19,361.94,360.41,361.25,358.79,332.96,0.1575,25900,3,0.98
624,360.21,359.78,360.28,361.13,360.32,362.06,360.58,361.45,359.07,332.96,0.1575,25900,3,0.98
625,360.24,359.84,360.36,361.29,360.43,362.19,360.76,361.6,359.34,332.98,0.1575,25900,3,0.98
626,360.3,359.93,360.43,361.38,360.53,362.26,360.94,361.7,359.6,333.06,0.1575,25900,3,0.98
627,360.37,360.02,360.52,361.52,360.63,362.37,361.12,361.78,359.81,333.14,0.1575,25900,3,0.98
628,360.48,360.15,360.65,361.64,360.76,362.47,361.33,361.8,360.11,333.3,0.1575,25900,3,0.98
629,360.6,360.29,360.78,361.75,360.84,362.55,361.49,361.8,360.37,333.48,0.1575,25900,3,0.98
630,360.7,360.41,360.87,361.83,360.89,362.62,361.58,361.79,360.54,333.61,0.1575,25900,3,0.98
631,360.82,360.54,360.97,361.91,360.94,362.69,361.65,361.81,360.7,333.72,0.1575,25900,3,0.98
632,360.94,360.68,361.07,361.96,360.98,362.77,361.7,361.88,360.85,333.79,0.1575,25900,3,0.98
633,361.07,360.81,361.14,362.0,361.02,362.82,361.78,361.96,360.95,333.83,0.1575,25900,3,0.98
634,361.18,360.96,361.2,362.08,361.04,362.89,361.85,362.1,361.0,333.84,0.1575,25900,3,0.98
635,361.3,361.09,361.23,362.16,361.07,362.93,361.92,362.24,361.0,333.85,0.1575,25900,3,0.98
636,361.41,361.21,361.24,362.25,361.1,362.94,361.94,362.26,360.94,333.89,0.1575,25900,3,0.98
637,361.54,361.36,361.22,362.31,361.12,362.92,361.95,362.26,360.82,334.02,0.1575,25900,3,0.98
638,361.65,361.49,361.24,362.34,361.14,362.93,361.96,362.24,360.72,334.19,0.1575,25900,3,0.98
639,361.7,361.59,361.29,362.38,361.15,362.95,361.99,362.23,360.68,334.28,0.1575,25900,3,0.98
640,361.76,361.67,361.35,362.39,361.15,362.99,362.03,362.31,360.66,334.37,0.1575,25900,3,0.98
641,361.83,361.74,361.41,362.38,361.14,363.05,362.04,362.38,360.63,334.47,0.1575,25900,3,0.98
642,361.9,361.79,361.5,362.37,361.13,363.08,362.07,362.4,360.63,334.57,0.1575,25900,3,0.98
643,361.95,361.82,361.58,362.35,361.12,363.14,362.11,362.43,360.62,334.65,0.1575,25900,3,0.98
644,361.96,361.87,361.66,362.33,361.11,363.2,362.14,362.46,360.65,334.71,0.1575,25900,3,0.98
645,361.94,361.89,361.74,362.33,361.11,363.25,362.17,362.48,360.69,334.79,0.1575,25900,3,0.98
646,361.94,361.87,361.83,362.35,361.09,363.29,362.21,362.49,360.83,334.94,0.1575,25900,3,0.98
647,361.94,361.86,361.93,362.41,361.1,363.32,362.24,362.49,361.07,335.15,0.1575,25900,3,0.98
648,361.94,361.87,361.97,362.47,361.1,363.32,362.29,362.46,361.23,335.3,0.1575,25900,3,0.98
649,361.97,361.87,361.99,362.51,361.13,363.32,362.33,362.45,361.38,335.48,0.1575,25900,3,0.98
650,361.96,361.88,362.01,362.57,361.17,363.34,362.35,362.47,361.51,335.64,0.1575,25900,3,0.98
651,361.96,361.85,362.03,362.62,361.22,363.37,362.37,362.5,361.62,335.79,0.1575,25900,3,0.98
652,361.94,361.84,362.05,362.65,361.28,363.4,362.36,362.49,361.69,335.94,0.1575,25900,3,0.98
653,361.92,361.84,362.08,362.69,361.34,363.43,362.35,362.47,361.71,336.09,0.1575,25900,3,0.98
654,361.89,361.85,362.1,362.72,361.39,363.44,362.36,362.45,361.7,336.22,0.1575,25900,3,0.98
655,361.84,361.87,362.11,362.74,361.49,363.44,362.36,362.46,361.66,336.4,0.1575,25900,3,0.98
656,361.8,361.87,362.09,362.78,361.58,363.44,362.31,362.5,361.61,336.58,0.1575,25900,3,0.98
657,361.79,361.86,362.07,362.83,361.64,363.42,362.25,362.55,361.57,336.7,0.1575,25900,3,0.98
658,361.77,361.85,362.04,362.86,361.7,363.41,362.2,362.52,361.48,336.88,0.1575,25900,3,0.98
659,361.75,361.87,362.04,362.89,361.74,363.42,362.15,362.47,361.35,337.04,0.1575,25900,3,0.98
660,361.75,361.88,362.04,362.91,361.79,363.46,362.14,362.41,361.25,337.21,0.1575,25900,3,0.98
661,361.76,361.89,362.04,362.94,361.82,363.5,362.09,362.38,361.17,337.38,0.1575,25900,3,0.98
662,361.79,361.9,362.04,362.98,361.85,363.52,362.13,362.45,361.15,337.56,0.1575,25900,3,0.98
663,361.84,361.84,362.04,363.0,361.88,363.53,362.19,362.53,361.12,337.75,0.1575,25900,3,0.98
664,361.93,361.77,362.02,363.01,361.93,363.54,362.29,362.63,361.04,337.98,0.1575,25900,3,0.98
665,362.04,361.74,361.99,362.95,361.97,363.54,362.34,362.68,361.01,338.15,0.1575,25900,3,0.98
666,362.13,361.71,361.96,362.88,361.99,363.53,362.34,362.7,361.06,338.21,0.1575,25900,3,0.98
667,362.21,361.66,361.93,362.82,361.98,363.53,362.35,362.76,361.16,338.32,0.1575,25900,3,0.98
668,362.28,361.6,361.92,362.79,361.96,363.53,362.31,362.91,361.25,338.47,0.1575,25900,3,0.98
669,362.3,361.57,361.9,362.76,361.95,363.54,362.28,362.99,361.36,338.64,0.1575,25900,3,0.98
670,362.26,361.55,361.91,362.76,361.96,363.55,362.24,362.97,361.5,338.81,0.1575,25900,3,0.98
671,362.21,361.52,361.92,362.74,361.95,363.58,362.22,362.91,361.65,338.96,0.1575,25900,3,0.98
672,362.19,361.52,361.94,362.73,361.96,363.62,362.22,362.84,361.79,339.12,0.1575,25900,3,0.98
673,362.21,361.5,361.93,362.73,361.99,363.64,362.27,362.8,361.86,339.34,0.1575,25900,3,0.98
674,362.26,361.49,361.9,362.74,362.03,363.66,362.34,362.76,361.81,339.55,0.1575,25900,3,0.98
675,362.27,361.48,361.88,362.73,362.05,363.68,362.32,362.74,361.79,339.68,0.1575,25900,3,0.98
676,362.24,361.46,361.84,362.74,362.07,363.69,362.25,362.8,361.81,339.78,0.1575,25900,3,0.98
677,362.19,361.43,361.8,362.75,362.09,363.73,362.18,362.89,361.82,339.87,0.1575,25900,3,0.98
678,362.07,361.38,361.79,362.74,362.11,363.75,362.17,362.99,361.87,339.95,0.1575,25900,3,0.98
679,361.95,361.34,361.8,362.74,362.12,363.78,362.23,363.02,361.95,340.02,0.1575,25900,3,0.98
680,361.86,361.29,361.81,362.76,362.13,363.84,362.31,363.01,362.06,340.1,0.1575,25900,3,0.98
681,361.78,361.24,361.79,362.77,362.12,363.88,362.36,362.99,362.14,340.2,0.1575,25900,3,0.98
682,361.68,361.16,361.78,362.78,362.13,363.91,362.37,362.94,362.18,340.41,0.1575,25900,3,0.98
683,361.63,361.12,361.77,362.77,362.17,363.94,362.31,362.91,362.2,340.67,0.1575,25900,3,0.98
684,361.62,361.12,361.76,362.75,362.18,363.95,362.3,362.92,362.17,340.84,0.1575,25900,3,0.98
685,361.62,361.15,361.77,362.73,362.19,363.94,362.33,362.98,362.12,341.01,0.1575,25900,3,0.98
686,361.64,361.2,361.77,362.72,362.21,363.93,362.31,363.02,362.12,341.17,0.1575,25900,3,0.98
687,361.65,361.25,361.76,362.73,362.22,363.91,362.21,363.01,362.11,341.33,0.1575,25900,3,0.98
688,361.66,361.3,361.76,362.75,362.24,363.89,362.09,363.02,362.06,341.48,0.1575,25900,3,0.98
689,361.66,361.35,361.78,362.78,362.24,363.89,362.0,363.03,361.93,341.63,0.1575,25900,3,0.98
690,361.63,361.35,361.78,362.8,362.25,363.89,361.93,363.02,361.83,341.76,0.1575,25900,3,0.98
691,361.57,361.31,361.79,362.82,362.25,363.89,361.87,363.01,361.8,341.87,0.1575,25900,3,0.98
692,361.5,361.28,361.8,362.83,362.24,363.9,361.85,362.96,361.77,341.9,0.1575,25900,3,0.98
693,361.46,361.3,361.81,362.83,362.24,363.9,361.78,362.79,361.75,341.91,0.1575,25900,3,0.98
694,361.43,361.32,361.82,362.82,362.23,363.9,361.66,362.58,361.69,341.95,0.1575,25900,3,0.98
695,361.42,361.3,361.81,362.81,362.23,363.9,361.57,362.42,361.59,341.98,0.1575,25900,3,0.98
696,361.4,361.26,361.82,362.79,362.19,363.89,361.46,362.35,361.52,342.0,0.1575,25900,3,0.98
697,361.4,361.22,361.8,362.76,362.17,363.85,361.37,362.29,361.49,342.02,0.1575,25900,3,0.98
698,361.37,361.18,361.8,362.72,362.13,363.82,361.35,362.26,361.49,342.03,0.1575,25900,3,0.98
699,361.32,361.11,361.82,362.69,362.09,363.79,361.36,362.21,361.51,342.03,0.1575,25900,3,0.98
700,361.24,360.96,361.81,362.66,362.02,363.76,361.51,362.09,361.54,342.05,0.1575,25900,3,0.98
701,361.21,360.81,361.78,362.64,361.98,363.73,361.67,361.97,361.57,342.1,0.1575,25900,3,0.98
702,361.2,360.74,361.72,362.62,361.95,363.71,361.76,361.79,361.53,342.13,0.1575,25900,3,0.98
703,361.2,360.68,361.66,362.65,361.92,363.67,361.81,361.76,361.51,342.13,0.1575,25900,3,0.98
704,361.17,360.64,361.58,362.69,361.89,363.64,361.8,361.85,361.47,342.14,0.1575,25900,3,0.98
705,361.14,360.63,361.52,362.72,361.88,363.61,361.76,361.97,361.43,342.16,0.1575,25900,3,0.98
706,361.13,360.58,361.48,362.76,361.85,363.6,361.76,362.17,361.39,342.22,0.1575,25900,3,0.98
707,361.1,360.5,361.46,362.79,361.84,363.59,361.76,362.37,361.32,342.31,0.1575,25900,3,0.98
708,361.08,360.4,361.44,362.77,361.81,363.61,361.72,362.54,361.21,342.44,0.1575,25900,3,0.98
709,361.07,360.29,361.42,362.72,361.8,363.62,361.69,362.57,361.14,342.65,0.1575,25900,3,0.98
710,361.03,360.22,361.42,362.69,361.77,363.63,361.69,362.54,361.13,342.87,0.1575,25900,3,0.98
711,360.99,360.21,361.41,362.62,361.77,363.64,361.73,362.52,361.14,343.01,0.1575,25900,3,0.98
712,360.95,360.22,361.39,362.56,361.74,363.65,361.75,362.55,361.12,343.14,0.1575,25900,3,0.98
713,360.91,360.24,361.36,362.52,361.69,363.65,361.69,362.62,361.12,343.26,0.1575,25900,3,0.98
714,360.89,360.28,361.36,362.51,361.65,363.63,361.62,362.68,361.14,343.38,0.1575,25900,3,0.98
715,360.87,360.31,361.36,362.48,361.62,363.62,361.56,362.74,361.15,343.47,0.1575,25900,3,0.98
716,360.85,360.34,361.34,362.45,361.61,363.63,361.5,362.83,361.13,343.56,0.1575,25900,3,0.98
717,360.85,360.38,361.29,362.44,361.6,363.64,361.45,362.91,361.1,343.64,0.1575,25900,3,0.98
718,360.84,360.39,361.21,362.43,361.6,363.66,361.46,362.96,361.0,343.73,0.1575,25900,3,0.98
719,360.87,360.32,361.14,362.42,361.6,363.66,361.51,362.94,361.0,343.78,0.1575,25900,3,0.98
720,360.9,360.28,361.11,362.42,361.58,363.67,361.57,362.86,361.03,343.84,0.1575,25900,3,0.98
721,360.93,360.24,361.1,362.41,361.56,363.66,361.64,362.8,361.07,343.9,0.1575,25900,3,0.98
722,360.93,360.23,361.1,362.4,361.54,363.64,361.7,362.82,361.1,343.97,0.1575,25900,3,0.98
723,360.91,360.23,361.15,362.38,361.53,363.62,361.78,362.91,361.12,344.03,0.1575,25900,3,0.98
724,360.86,360.24,361.19,362.35,361.51,363.59,361.86,362.97,361.1,344.09,0.1575,25900,3,0.98
725,360.84,360.24,361.25,362.33,361.52,363.59,361.92,362.98,361.06,344.19,0.1575,25900,3,0.98
726,360.86,360.3,361.3,362.3,361.54,363.59,361.96,362.94,361.04,344.3,0.1575,25900,3,0.98
727,360.95,360.37,361.29,362.28,361.58,363.62,362.06,362.91,361.03,344.45,0.1575,25900,3,0.98
728,361.09,360.49,361.28,362.27,361.63,363.65,362.12,362.89,361.06,344.59,0.1575,25900,3,0.98
729,361.2,360.55,361.26,362.26,361.67,363.67,362.1,362.94,361.1,344.65,0.1575,25900,3,0.98
730,361.3,360.62,361.26,362.27,361.7,363.69,362.06,362.99,361.16,344.71,0.1575,25900,3,0.98
731,361.37,360.66,361.27,362.28,361.73,363.68,362.03,362.94,361.24,344.77,0.1575,25900,3,0.98
732,361.39,360.7,361.29,362.32,361.76,363.68,362.03,362.87,361.34,344.86,0.1575,25900,3,0.98
733,361.36,360.71,361.3,362.34,361.79,363.67,362.05,362.82,361.46,344.95,0.1575,25900,3,0.98
734,361.33,360.71,361.33,362.34,361.79,363.65,362.05,362.78,361.57,345.03,0.1575,25900,3,0.98
735,361.31,360.69,361.36,362.31,361.8,363.63,362.06,362.76,361.68,345.11,0.1575,25900,3,0.98
736,361.31,360.63,361.36,362.27,361.77,363.62,362.05,362.75,361.83,345.26,0.1575,25900,3,0.98
737,361.28,360.53,361.32,362.22,361.73,363.62,362.03,362.78,361.96,345.41,0.1575,25900,3,0.98
738,361.26,360.46,361.28,362.21,361.72,363.62,361.96,362.81,362.04,345.5,0.1575,25900,3,0.98
739,361.25,360.4,361.24,362.18,361.7,363.64,361.88,362.85,362.09,345.59,0.1575,25900,3,0.98
740,361.22,360.34,361.22,362.15,361.7,363.64,361.79,362.91,362.16,345.7,0.1575,25900,3,0.98
741,361.2,360.29,361.21,362.14,361.7,363.65,361.71,362.99,362.21,345.8,0.1575,25900,3,0.98
742,361.2,360.23,361.19,362.15,361.69,363.66,361.63,363.05,362.28,345.88,0.1575,25900,3,0.98
743,361.18,360.16,361.17,362.17,361.68,363.65,361.56,363.08,362.36,345.96,0.1575,25900,3,0.98
744,361.17,360.12,361.17,362.17,361.68,363.64,361.49,363.09,362.43,346.01,0.1575,25900,3,0.98
745,361.13,360.06,361.18,362.14,361.65,363.63,361.46,363.09,362.39,346.06,0.1575,25900,3,0.98
746,361.06,359.97,361.22,362.11,361.6,363.62,361.55,363.1,362.19,346.06,0.1575,25900,3,0.98
747,361.01,359.94,361.24,362.09,361.58,363.62,361.66,363.09,362.03,346.04,0.1575,25900,3,0.98
748,360.97,359.91,361.26,362.08,361.55,363.61,361.79,363.08,361.91,346.03,0.1575,25900,3,0.98
749,360.96,359.81,361.28,362.1,361.55,363.61,361.9,363.08,361.85,346.06,0.1575,25900,3,0.98
750,360.96,359.75,361.28,362.13,361.56,363.59,361.97,363.08,361.74,346.06,0.1575,25900,3,0.98
751,360.99,359.72,361.25,362.16,361.57,363.58,362.05,363.09,361.59,346.06,0.1575,25900,3,0.98
752,360.99,359.68,361.23,362.16,361.58,363.56,362.11,363.09,361.51,346.05,0.1575,25900,3,0.98
753,360.97,359.64,361.21,362.15,361.57,363.55,362.14,363.08,361.49,346.04,0.1575,25900,3,0.98
754,360.89,359.57,361.17,362.16,361.58,363.55,362.08,363.08,361.47,346.06,0.1575,25900,3,0.98
755,360.81,359.51,361.15,362.15,361.58,363.54,361.98,363.03,361.49,346.1,0.1575,25900,3,0.98
756,360.79,359.49,361.13,362.11,361.59,363.53,361.87,362.95,361.49,346.13,0.1575,25900,3,0.98
757,360.81,359.5,361.13,362.06,361.58,363.55,361.8,362.87,361.44,346.17,0.1575,25900,3,0.98
758,360.86,359.52,361.13,361.99,361.58,363.55,361.78,362.73,361.39,346.21,0.1575,25900,3,0.98
759,360.92,359.54,361.12,361.92,361.57,363.56,361.77,362.56,361.36,346.26,0.1575,25900,3,0.98
760,360.98,359.56,361.13,361.86,361.55,363.57,361.81,362.41,361.36,346.3,0.1575,25900,3,0.98
761,361.02,359.55,361.13,361.83,361.56,363.59,361.9,362.36,361.32,346.36,0.1575,25900,3,0.98
762,361.08,359.57,361.13,361.8,361.56,363.6,362.0,362.33,361.24,346.41,0.1575,25900,3,0.98
763,361.14,359.7,361.14,361.79,361.55,363.61,362.14,362.34,361.14,346.47,0.1575,25900,3,0.98
764,361.25,359.84,361.16,361.79,361.54,363.63,362.25,362.32,361.13,346.54,0.1575,25900,3,0.98
765,361.34,359.89,361.14,361.8,361.54,363.63,362.29,362.32,361.17,346.58,0.1575,25900,3,0.98
766,361.37,359.89,361.1,361.82,361.53,363.64,362.3,362.36,361.23,346.62,0.1575,25900,3,0.98
767,361.38,359.82,361.07,361.86,361.53,363.63,362.29,362.42,361.28,346.65,0.1575,25900,3,0.98
768,361.37,359.75,361.02,361.91,361.52,363.61,362.27,362.45,361.24,346.68,0.1575,25900,3,0.98
769,361.33,359.72,360.97,361.97,361.51,363.6,362.25,362.45,361.12,346.68,0.1575,25900,3,0.98
770,361.32,359.75,360.93,362.04,361.47,363.59,362.22,362.46,361.07,346.68,0.1575,25900,3,0.98
771,361.3,359.8,360.91,362.08,361.42,363.59,362.2,362.54,361.06,346.66,0.1575,25900,3,0.98
772,361.23,359.82,360.9,362.1,361.36,363.6,362.14,362.65,361.09,346.69,0.1575,25900,3,0.98
773,361.21,359.84,360.88,362.1,361.32,363.62,362.07,362.74,361.16,346.79,0.1575,25900,3,0.98
774,361.22,359.87,360.85,362.1,361.3,363.63,362.03,362.82,361.23,346.89,0.1575,25900,3,0.98
775,361.24,359.91,360.83,362.11,361.31,363.64,361.98,362.86,361.29,347.0,0.1575,25900,3,0.98
776,361.25,359.96,360.79,362.12,361.3,363.65,361.91,362.86,361.35,347.11,0.1575,25900,3,0.98
777,361.27,359.99,360.77,362.13,361.34,363.66,361.74,362.82,361.43,347.22,0.1575,25900,3,0.98
778,361.31,360.0,360.74,362.15,361.38,363.67,361.5,362.76,361.52,347.32,0.1575,25900,3,0.98
779,361.32,359.96,360.71,362.17,361.43,363.67,361.33,362.69,361.61,347.41,0.1575,25900,3,0.98
780,361.3,359.92,360.68,362.16,361.47,363.64,361.22,362.59,361.71,347.48,0.1575,25900,3,0.98
781,361.25,359.85,360.68,362.14,361.54,363.62,361.09,362.5,361.86,347.57,0.1575,25900,3,0.98
782,361.19,359.73,360.69,362.13,361.62,363.61,360.87,362.47,362.01,347.66,0.1575,25900,3,0.98
783,361.17,359.64,360.72,362.11,361.66,363.57,360.87,362.46,362.12,347.71,0.1575,25900,3,0.98
784,361.15,359.56,360.73,362.08,361.7,363.53,360.88,362.47,362.24,347.76,0.1575,25900,3,0.98
785,361.18,359.5,360.76,362.04,361.73,363.49,360.83,362.52,362.36,347.79,0.1575,25900,3,0.98
786,361.23,359.46,360.8,362.01,361.74,363.44,360.79,362.59,362.48,347.84,0.1575,25900,3,0.98
787,361.25,359.45,360.82,361.99,361.77,363.39,360.79,362.67,362.56,347.9,0.1575,25900,3,0.98
788,361.23,359.44,360.84,361.95,361.76,363.36,360.79,362.73,362.59,347.97,0.1575,25900,3,0.98
789,361.21,359.41,360.84,361.92,361.75,363.33,360.79,362.76,362.59,348.03,0.1575,25900,3,0.98
790,361.17,359.29,360.88,361.88,361.72,363.31,360.86,362.82,362.54,348.12,0.1575,25900,3,0.98
791,361.07,359.14,360.9,361.84,361.7,363.3,360.98,362.85,362.48,348.18,0.1575,25900,3,0.98
792,361.03,359.08,360.92,361.8,361.68,363.3,361.13,362.87,362.44,348.16,0.1575,25900,3,0.98
793,360.96,359.04,360.93,361.77,361.66,363.31,361.33,362.92,362.44,348.13,0.1575,25900,3,0.98
794,360.91,359.0,360.93,361.75,361.64,363.32,361.52,362.98,362.48,348.08,0.1575,25900,3,0.98
795,360.85,358.99,360.96,361.72,361.64,363.33,361.69,363.04,362.53,348.03,0.1575,25900,3,0.98
796,360.78,358.98,360.98,361.72,361.64,363.34,361.83,363.09,362.56,347.99,0.1575,25900,3,0.98
797,360.76,358.99,361.01,361.75,361.63,363.34,361.89,363.13,362.56,347.95,0.1575,25900,3,0.98
798,360.77,358.99,361.04,361.8,361.62,363.34,361.92,363.14,362.51,347.9,0.1575,25900,3,0.98
799,360.82,359.02,361.07,361.85,361.63,363.34,361.95,363.11,362.39,347.8,0.1575,25900,3,0.98
800,360.85,359.08,361.09,361.88,361.63,363.33,361.93,363.0,362.19,347.72,0.1575,25900,3,0.98
801,360.82,359.14,361.1,361.89,361.62,363.33,361.95,362.95,362.06,347.71,0.1575,25900,3,0.98
802,360.8,359.17,361.11,361.92,361.61,363.31,362.0,362.87,361.98,347.72,0.1575,25900,3,0.98
803,360.77,359.18,361.11,361.95,361.57,363.31,362.05,362.79,361.93,347.7,0.1575,25900,3,0.98
804,360.74,359.18,361.14,361.97,361.52,363.34,362.12,362.72,361.89,347.67,0.1575,25900,3,0.98
805,360.71,359.17,361.17,361.99,361.48,363.4,362.17,362.66,361.81,347.64,0.1575,25900,3,0.98
806,360.7,359.14,361.2,362.0,361.45,363.44,362.18,362.61,361.69,347.61,0.1575,25900,3,0.98
807,360.67,359.12,361.22,362.0,361.45,363.47,362.16,362.57,361.58,347.57,0.1575,25900,3,0.98
808,360.65,359.15,361.24,362.01,361.43,363.49,362.16,362.58,361.41,347.5,0.1575,25900,3,0.98
809,360.63,359.2,361.25,362.03,361.41,363.51,362.19,362.57,361.17,347.43,0.1575,25900,3,0.98
810,360.56,359.18,361.26,362.04,361.37,363.5,362.18,362.54,360.93,347.38,0.1575,25900,3,0.98
811,360.48,359.13,361.27,362.09,361.35,363.52,362.22,362.55,360.72,347.3,0.1575,25900,3,0.98
812,360.42,359.13,361.28,362.12,361.31,363.54,362.32,362.58,360.58,347.22,0.1575,25900,3,0.98
813,360.38,359.11,361.27,362.15,361.28,363.57,362.45,362.52,360.47,347.14,0.1575,25900,3,0.98
814,360.37,359.1,361.27,362.18,361.26,363.57,362.58,362.46,360.41,347.07,0.1575,25900,3,0.98
815,360.35,359.09,361.26,362.21,361.26,363.57,362.66,362.48,360.41,347.03,0.1575,25900,3,0.98
816,360.32,359.04,361.25,362.24,361.27,363.56,362.69,362.51,360.44,346.98,0.1575,25900,3,0.98
817,360.31,358.97,361.23,362.25,361.29,363.54,362.67,362.48,360.52,346.92,0.1575,25900,3,0.98
818,360.32,358.92,361.2,362.27,361.32,363.52,362.62,362.47,360.63,346.86,0.1575,25900,3,0.98
819,360.3,358.88,361.17,362.3,361.34,363.5,362.59,362.49,360.71,346.83,0.1575,25900,3,0.98
820,360.26,358.9,361.14,362.3,361.38,363.5,362.57,362.54,360.79,346.83,0.1575,25900,3,0.98
821,360.2,358.94,361.09,362.3,361.41,363.52,362.56,362.59,360.87,346.84,0.1575,25900,3,0.98
822,360.16,358.94,361.05,362.3,361.44,363.52,362.56,362.6,360.98,346.86,0.1575,25900,3,0.98
823,360.13,358.92,361.04,362.3,361.47,363.51,362.58,362.6,361.09,346.89,0.1575,25900,3,0.98
824,360.1,358.89,361.03,362.28,361.5,363.53,362.62,362.6,361.24,346.93,0.1575,25900,3,0.98
825,360.1,358.84,361.03,362.26,361.53,363.54,362.67,362.63,361.38,346.97,0.1575,25900,3,0.98
826,360.11,358.8,361.04,362.26,361.57,363.55,362.75,362.66,361.62,347.01,0.1575,25900,3,0.98
827,360.13,358.81,361.05,362.25,361.62,363.55,362.8,362.6,361.85,347.05,0.1575,25900,3,0.98
828,360.16,358.83,361.06,362.26,361.66,363.55,362.8,362.55,361.97,347.09,0.1575,25900,3,0.98
829,360.18,358.84,361.07,362.27,361.69,363.56,362.77,362.51,362.06,347.12,0.1575,25900,3,0.98
830,360.21,358.86,361.08,362.28,361.74,363.56,362.72,362.48,362.15,347.15,0.1575,25900,3,0.98
