Time,TC1_tip,TC2,TC3,TC4,TC5,TC6,TC7,TC8,TC9,TC10,h,flux,abs,surf
511,360.3,359.61,359.47,359.69,358.95,360.66,358.46,358.98,355.38,333.79,0.1575,19400,3,0.98
512,360.31,359.66,359.49,359.71,358.97,360.66,358.66,359.19,355.57,333.41,0.1575,19400,3,0.98
513,360.35,359.77,359.53,359.76,359.01,360.7,358.85,359.47,355.77,333.24,0.1575,19400,3,0.98
514,360.44,359.9,359.6,359.85,359.06,360.76,359.05,359.74,356.05,333.12,0.1575,19400,3,0.98
515,360.52,360.02,359.67,359.93,359.11,360.84,359.26,359.97,356.36,333.02,0.1575,19400,3,0.98
516,360.61,360.12,359.75,359.98,359.15,360.88,359.44,360.09,356.67,332.94,0.1575,19400,3,0.98
517,360.69,360.21,359.8,360.05,359.22,360.93,359.62,360.2,357.0,332.87,0.1575,19400,3,0.98
518,360.78,360.29,359.83,360.13,359.29,360.99,359.77,360.34,357.32,332.81,0.1575,19400,3,0.98
519,360.86,360.37,359.89,360.2,359.39,361.07,359.84,360.4,357.61,332.8,0.1575,19400,3,0.98
520,360.94,360.46,359.97,360.26,359.51,361.18,359.91,360.39,357.96,332.81,0.1575,19400,3,0.98
521,360.98,360.54,360.06,360.3,359.63,361.3,360.01,360.32,358.24,332.8,0.1575,19400,3,0.98
522,360.97,360.6,360.1,360.33,359.71,361.42,360.08,360.32,358.41,332.83,0.1575,19400,3,0.98
523,361.0,360.66,360.15,360.36,359.79,361.48,360.16,360.35,358.55,332.87,0.1575,19400,3,0.98
524,361.02,360.69,360.18,360.4,359.86,361.58,360.22,360.42,358.63,332.92,0.1575,19400,3,0.98
525,361.06,360.71,360.21,360.45,359.94,361.68,360.23,360.53,358.68,333.02,0.1575,19400,3,0.98
526,361.1,360.72,360.23,360.52,360.03,361.77,360.22,360.63,358.73,333.13,0.1575,19400,3,0.98
527,361.14,360.72,360.25,360.59,360.09,361.86,360.21,360.68,358.81,333.24,0.1575,19400,3,0.98
528,361.18,360.73,360.26,360.67,360.16,361.94,360.2,360.69,358.89,333.36,0.1575,19400,3,0.98
529,361.24,360.78,360.25,360.74,360.26,362.03,360.24,360.68,358.98,333.59,0.1575,19400,3,0.98
530,361.32,360.84,360.22,360.78,360.36,362.08,360.31,360.7,358.99,333.83,0.1575,19400,3,0.98
531,361.37,360.88,360.21,360.82,360.42,362.17,360.38,360.8,358.99,334.03,0.1575,19400,3,0.98
532,361.42,360.9,360.21,360.85,360.47,362.25,360.48,360.88,359.03,334.26,0.1575,19400,3,0.98
533,361.47,360.9,360.22,360.87,360.49,362.3,360.54,361.0,359.04,334.44,0.1575,19400,3,0.98
534,361.51,360.89,360.24,360.87,360.51,362.36,360.57,361.1,359.08,334.62,0.1575,19400,3,0.98
535,361.58,360.87,360.25,360.87,360.52,362.4,360.6,361.13,359.13,334.76,0.1575,19400,3,0.98
536,361.63,360.85,360.26,360.88,360.53,362.43,360.63,361.14,359.18,334.9,0.1575,19400,3,0.98
537,361.69,360.86,360.26,360.89,360.54,362.45,360.61,361.12,359.24,335.01,0.1575,19400,3,0.98
538,361.78,360.91,360.3,360.91,360.58,362.5,360.59,361.08,359.29,335.12,0.1575,19400,3,0.98
539,361.85,360.95,360.36,360.93,360.63,362.54,360.55,361.07,359.26,335.21,0.1575,19400,3,0.98
540,361.84,360.98,360.4,360.97,360.65,362.58,360.5,361.13,359.22,335.29,0.1575,19400,3,0.98
541,361.81,360.99,360.43,361.03,360.68,362.61,360.45,361.2,359.19,335.4,0.1575,19400,3,0.98
542,361.76,360.98,360.46,361.1,360.7,362.66,360.35,361.24,359.19,335.5,0.1575,19400,3,0.98
543,361.7,360.97,360.49,361.16,360.73,362.69,360.27,361.29,359.2,335.6,0.1575,19400,3,0.98
544,361.66,360.96,360.53,361.21,360.77,362.72,360.21,361.31,359.21,335.66,0.1575,19400,3,0.98
545,361.59,360.93,360.58,361.26,360.8,362.76,360.17,361.29,359.26,335.71,0.1575,19400,3,0.98
546,361.54,360.91,360.61,361.29,360.82,362.79,360.13,361.22,359.31,335.77,0.1575,19400,3,0.98
547,361.5,360.91,360.66,361.31,360.85,362.8,360.1,361.17,359.4,335.91,0.1575,19400,3,0.98
548,361.51,360.91,360.71,361.31,360.87,362.81,360.09,361.13,359.36,336.05,0.1575,19400,3,0.98
549,361.55,360.91,360.74,361.29,360.87,362.79,360.09,361.1,359.27,336.15,0.1575,19400,3,0.98
550,361.61,360.91,360.75,361.26,360.87,362.77,360.12,361.06,359.22,336.24,0.1575,19400,3,0.98
551,361.68,360.93,360.77,361.25,360.87,362.76,360.18,361.02,359.23,336.35,0.1575,19400,3,0.98
552,361.75,360.94,360.8,361.2,360.88,362.75,360.24,360.98,359.25,336.46,0.1575,19400,3,0.98
553,361.82,360.95,360.82,361.14,360.86,362.73,360.29,360.94,359.29,336.55,0.1575,19400,3,0.98
554,361.9,360.94,360.86,361.11,360.86,362.7,360.35,360.93,359.36,336.63,0.1575,19400,3,0.98
555,361.98,360.9,360.9,361.09,360.83,362.68,360.43,360.95,359.38,336.78,0.1575,19400,3,0.98
556,362.05,360.83,360.95,361.07,360.81,362.65,360.52,360.96,359.28,337.01,0.1575,19400,3,0.98
557,362.08,360.76,360.97,361.05,360.78,362.62,360.58,361.0,359.13,337.2,0.1575,19400,3,0.98
558,362.09,360.7,360.97,361.04,360.77,362.6,360.64,361.01,358.95,337.37,0.1575,19400,3,0.98
559,362.05,360.64,360.94,361.01,360.73,362.57,360.68,361.04,358.78,337.5,0.1575,19400,3,0.98
560,362.01,360.59,360.92,360.98,360.71,362.53,360.71,361.1,358.63,337.61,0.1575,19400,3,0.98
561,361.96,360.53,360.89,360.95,360.69,362.48,360.71,361.18,358.54,337.72,0.1575,19400,3,0.98
562,361.93,360.53,360.87,360.91,360.66,362.43,360.73,361.25,358.48,337.84,0.1575,19400,3,0.98
563,361.9,360.54,360.85,360.89,360.64,362.4,360.76,361.25,358.45,337.96,0.1575,19400,3,0.98
564,361.87,360.57,360.82,360.9,360.62,362.38,360.76,361.28,358.44,338.05,0.1575,19400,3,0.98
565,361.82,360.56,360.77,360.9,360.6,362.38,360.72,361.31,358.53,338.16,0.1575,19400,3,0.98
566,361.76,360.44,360.69,360.89,360.57,362.38,360.65,361.36,358.61,338.23,0.1575,19400,3,0.98
567,361.72,360.27,360.65,360.88,360.56,362.38,360.59,361.42,358.58,338.29,0.1575,19400,3,0.98
568,361.68,360.18,360.59,360.84,360.54,362.4,360.55,361.45,358.51,338.37,0.1575,19400,3,0.98
569,361.64,360.19,360.52,360.81,360.51,362.41,360.51,361.48,358.39,338.48,0.1575,19400,3,0.98
570,361.56,360.15,360.47,360.78,360.46,362.4,360.44,361.52,358.33,338.62,0.1575,19400,3,0.98
571,361.47,360.07,360.44,360.76,360.42,362.39,360.31,361.55,358.35,338.78,0.1575,19400,3,0.98
572,361.38,360.04,360.43,360.74,360.37,362.37,360.2,361.57,358.43,338.91,0.1575,19400,3,0.98
573,361.32,359.97,360.41,360.68,360.32,362.34,360.16,361.53,358.53,339.04,0.1575,19400,3,0.98
574,361.3,359.86,360.38,360.62,360.24,362.31,360.25,361.48,358.65,339.21,0.1575,19400,3,0.98
575,361.28,359.82,360.36,360.57,360.18,362.27,360.41,361.39,358.74,339.4,0.1575,19400,3,0.98
576,361.27,359.82,360.35,360.53,360.13,362.24,360.5,361.31,358.76,339.54,0.1575,19400,3,0.98
577,361.26,359.84,360.34,360.49,360.11,362.2,360.55,361.25,358.84,339.67,0.1575,19400,3,0.98
578,361.25,359.86,360.33,360.45,360.08,362.18,360.56,361.24,358.94,339.78,0.1575,19400,3,0.98
579,361.26,359.91,360.33,360.43,360.08,362.16,360.57,361.25,359.06,339.88,0.1575,19400,3,0.98
580,361.26,359.94,360.33,360.42,360.09,362.14,360.57,361.26,359.15,339.99,0.1575,19400,3,0.98
581,361.27,359.96,360.34,360.39,360.1,362.13,360.57,361.24,359.19,340.08,0.1575,19400,3,0.98
582,361.26,359.98,360.34,360.37,360.09,362.12,360.61,361.22,359.19,340.21,0.1575,19400,3,0.98
583,361.24,359.98,360.35,360.34,360.1,362.11,360.65,361.21,359.21,340.33,0.1575,19400,3,0.98
584,361.2,359.95,360.35,360.32,360.09,362.1,360.66,361.14,359.2,340.38,0.1575,19400,3,0.98
585,361.18,359.93,360.37,360.3,360.09,362.1,360.68,361.04,359.14,340.44,0.1575,19400,3,0.98
586,361.16,359.92,360.37,360.3,360.08,362.1,360.67,361.02,359.1,340.48,0.1575,19400,3,0.98
587,361.16,359.88,360.39,360.32,360.08,362.09,360.69,361.06,359.12,340.52,0.1575,19400,3,0.98
588,361.18,359.85,360.4,360.37,360.09,362.08,360.73,361.11,359.16,340.56,0.1575,19400,3,0.98
589,361.23,359.84,360.38,360.38,360.08,362.04,360.77,361.14,359.19,340.59,0.1575,19400,3,0.98
590,361.31,359.84,360.38,360.36,360.1,362.0,360.75,361.16,359.24,340.63,0.1575,19400,3,0.98
591,361.42,359.85,360.39,360.32,360.1,361.95,360.66,361.18,359.3,340.64,0.1575,19400,3,0.98
592,361.54,359.89,360.37,360.29,360.09,361.91,360.48,361.18,359.43,340.69,0.1575,19400,3,0.98
593,361.59,359.9,360.38,360.29,360.08,361.88,360.35,361.17,359.6,340.78,0.1575,19400,3,0.98
594,361.61,359.86,360.37,360.31,360.07,361.87,360.3,361.14,359.7,340.84,0.1575,19400,3,0.98
595,361.61,359.82,360.35,360.32,360.08,361.84,360.29,361.1,359.77,340.9,0.1575,19400,3,0.98
596,361.55,359.83,360.35,360.35,360.1,361.84,360.28,361.06,359.83,340.96,0.1575,19400,3,0.98
597,361.47,359.82,360.35,360.4,360.12,361.84,360.27,361.03,359.85,340.99,0.1575,19400,3,0.98
598,361.41,359.83,360.34,360.44,360.13,361.85,360.27,361.02,359.88,341.01,0.1575,19400,3,0.98
599,361.35,359.84,360.34,360.48,360.12,361.86,360.27,361.04,359.89,341.03,0.1575,19400,3,0.98
600,361.32,359.87,360.34,360.52,360.12,361.86,360.29,361.07,359.9,341.05,0.1575,19400,3,0.98
601,361.28,359.89,360.33,360.56,360.12,361.84,360.37,361.14,359.88,341.12,0.1575,19400,3,0.98
602,361.22,359.8,360.28,360.6,360.12,361.82,360.47,361.21,359.85,341.19,0.1575,19400,3,0.98
603,361.16,359.67,360.26,360.62,360.13,361.81,360.55,361.2,359.84,341.24,0.1575,19400,3,0.98
604,361.11,359.56,360.19,360.63,360.13,361.83,360.57,361.16,359.85,341.26,0.1575,19400,3,0.98
605,361.06,359.43,360.11,360.64,360.14,361.83,360.57,361.1,359.86,341.3,0.1575,19400,3,0.98
606,360.99,359.3,360.03,360.61,360.16,361.83,360.54,361.08,359.84,341.32,0.1575,19400,3,0.98
607,360.9,359.21,359.96,360.59,360.16,361.84,360.54,361.1,359.8,341.35,0.1575,19400,3,0.98
608,360.81,359.19,359.89,360.54,360.15,361.84,360.55,361.13,359.75,341.38,0.1575,19400,3,0.98
609,360.72,359.2,359.82,360.5,360.11,361.87,360.56,361.18,359.69,341.4,0.1575,19400,3,0.98
610,360.61,359.26,359.82,360.46,360.09,361.89,360.59,361.2,359.68,341.45,0.1575,19400,3,0.98
611,360.56,359.25,359.83,360.42,360.05,361.91,360.59,361.2,359.71,341.52,0.1575,19400,3,0.98
612,360.55,359.2,359.82,360.39,360.03,361.91,360.55,361.22,359.77,341.59,0.1575,19400,3,0.98
613,360.55,359.17,359.83,360.35,360.0,361.91,360.52,361.25,359.83,341.65,0.1575,19400,3,0.98
614,360.57,359.12,359.83,360.34,359.98,361.92,360.5,361.29,359.89,341.7,0.1575,19400,3,0.98
615,360.6,359.03,359.82,360.33,359.94,361.9,360.53,361.34,359.93,341.76,0.1575,19400,3,0.98
616,360.63,358.96,359.84,360.32,359.92,361.87,360.58,361.38,359.96,341.8,0.1575,19400,3,0.98
617,360.63,358.9,359.84,360.3,359.91,361.81,360.64,361.4,359.93,341.86,0.1575,19400,3,0.98
618,360.58,358.88,359.85,360.29,359.88,361.75,360.68,361.36,359.79,341.92,0.1575,19400,3,0.98
619,360.51,358.85,359.87,360.29,359.84,361.69,360.71,361.28,359.67,341.99,0.1575,19400,3,0.98
620,360.5,358.82,359.87,360.29,359.81,361.62,360.71,361.23,359.65,342.09,0.1575,19400,3,0.98
621,360.49,358.77,359.87,360.27,359.77,361.58,360.68,361.18,359.67,342.2,0.1575,19400,3,0.98
622,360.46,358.75,359.86,360.25,359.74,361.54,360.62,361.16,359.72,342.35,0.1575,19400,3,0.98
623,360.4,358.73,359.85,360.23,359.7,361.5,360.58,361.12,359.78,342.48,0.1575,19400,3,0.98
624,360.37,358.74,359.84,360.19,359.67,361.5,360.57,361.1,359.84,342.6,0.1575,19400,3,0.98
625,360.35,358.75,359.83,360.14,359.64,361.5,360.57,361.07,359.88,342.68,0.1575,19400,3,0.98
626,360.35,358.78,359.82,360.07,359.61,361.51,360.6,361.03,359.9,342.76,0.1575,19400,3,0.98
627,360.36,358.81,359.8,360.02,359.58,361.5,360.65,360.96,359.91,342.87,0.1575,19400,3,0.98
628,360.37,358.87,359.8,360.01,359.57,361.51,360.71,360.92,359.9,342.97,0.1575,19400,3,0.98
629,360.32,358.87,359.81,360.0,359.56,361.49,360.71,360.95,359.89,343.05,0.1575,19400,3,0.98
630,360.3,358.83,359.81,360.0,359.55,361.49,360.71,361.01,359.88,343.13,0.1575,19400,3,0.98
631,360.3,358.79,359.8,360.01,359.54,361.46,360.69,361.05,359.85,343.21,0.1575,19400,3,0.98
632,360.31,358.77,359.79,360.03,359.53,361.47,360.68,361.07,359.82,343.3,0.1575,19400,3,0.98
633,360.34,358.75,359.78,360.04,359.52,361.48,360.68,361.09,359.83,343.39,0.1575,19400,3,0.98
634,360.35,358.75,359.78,360.06,359.53,361.49,360.68,361.14,359.88,343.46,0.1575,19400,3,0.98
635,360.36,358.74,359.76,360.08,359.54,361.52,360.68,361.19,359.93,343.51,0.1575,19400,3,0.98
636,360.36,358.76,359.75,360.13,359.58,361.56,360.71,361.23,360.01,343.59,0.1575,19400,3,0.98
637,360.41,358.79,359.74,360.17,359.61,361.59,360.76,361.25,360.03,343.67,0.1575,19400,3,0.98
638,360.47,358.81,359.72,360.2,359.65,361.64,360.79,361.29,360.02,343.72,0.1575,19400,3,0.98
639,360.54,358.85,359.68,360.24,359.69,361.68,360.81,361.3,360.01,343.79,0.1575,19400,3,0.98
640,360.62,358.88,359.65,360.27,359.74,361.72,360.83,361.33,360.0,343.84,0.1575,19400,3,0.98
641,360.68,358.91,359.62,360.27,359.76,361.76,360.81,361.39,359.97,343.87,0.1575,19400,3,0.98
642,360.72,358.94,359.61,360.26,359.8,361.78,360.78,361.43,359.97,343.92,0.1575,19400,3,0.98
643,360.77,358.96,359.6,360.21,359.84,361.79,360.75,361.44,359.95,343.96,0.1575,19400,3,0.98
644,360.81,358.92,359.61,360.17,359.86,361.81,360.73,361.43,359.94,344.0,0.1575,19400,3,0.98
645,360.78,358.86,359.61,360.16,359.89,361.81,360.7,361.41,359.96,344.05,0.1575,19400,3,0.98
646,360.64,358.78,359.6,360.15,359.89,361.82,360.66,361.41,360.0,344.11,0.1575,19400,3,0.98
647,360.57,358.74,359.6,360.14,359.88,361.8,360.63,361.43,360.03,344.15,0.1575,19400,3,0.98
648,360.51,358.7,359.59,360.11,359.87,361.76,360.62,361.37,360.06,344.2,0.1575,19400,3,0.98
649,360.5,358.68,359.59,360.11,359.85,361.72,360.61,361.35,360.08,344.28,0.1575,19400,3,0.98
650,360.5,358.65,359.59,360.13,359.82,361.68,360.59,361.34,360.11,344.35,0.1575,19400,3,0.98
651,360.47,358.62,359.58,360.15,359.82,361.62,360.57,361.31,360.17,344.43,0.1575,19400,3,0.98
652,360.4,358.56,359.57,360.18,359.8,361.55,360.56,361.3,360.22,344.51,0.1575,19400,3,0.98
653,360.32,358.52,359.56,360.2,359.79,361.51,360.57,361.29,360.28,344.58,0.1575,19400,3,0.98
654,360.14,358.44,359.57,360.21,359.79,361.47,360.61,361.29,360.32,344.65,0.1575,19400,3,0.98
655,360.01,358.4,359.58,360.19,359.79,361.44,360.64,361.23,360.32,344.71,0.1575,19400,3,0.98
656,359.96,358.38,359.59,360.16,359.78,361.43,360.64,361.17,360.29,344.74,0.1575,19400,3,0.98
657,359.94,358.37,359.61,360.12,359.76,361.41,360.65,361.11,360.26,344.77,0.1575,19400,3,0.98
658,359.97,358.37,359.62,360.08,359.72,361.38,360.65,361.1,360.23,344.78,0.1575,19400,3,0.98
659,360.02,358.37,359.65,360.04,359.69,361.34,360.66,361.12,360.2,344.82,0.1575,19400,3,0.98
660,360.05,358.38,359.65,360.01,359.64,361.32,360.66,361.15,360.13,344.84,0.1575,19400,3,0.98
661,359.99,358.38,359.66,359.96,359.59,361.29,360.65,361.15,360.07,344.85,0.1575,19400,3,0.98
662,359.93,358.36,359.68,359.9,359.55,361.27,360.65,361.13,360.03,344.86,0.1575,19400,3,0.98
663,359.89,358.28,359.69,359.85,359.48,361.27,360.62,361.1,359.98,344.91,0.1575,19400,3,0.98
664,359.88,358.23,359.67,359.78,359.4,361.26,360.57,361.09,360.0,344.98,0.1575,19400,3,0.98
665,359.89,358.2,359.66,359.72,359.37,361.24,360.55,361.11,360.05,345.02,0.1575,19400,3,0.98
666,359.94,358.19,359.65,359.66,359.35,361.22,360.55,361.13,360.11,345.04,0.1575,19400,3,0.98
667,360.0,358.19,359.65,359.62,359.32,361.19,360.55,361.13,360.14,345.03,0.1575,19400,3,0.98
668,360.04,358.19,359.65,359.61,359.32,361.19,360.54,361.12,360.18,345.04,0.1575,19400,3,0.98
669,360.07,358.16,359.65,359.58,359.32,361.18,360.48,361.08,360.23,345.06,0.1575,19400,3,0.98
670,360.04,358.19,359.64,359.59,359.32,361.18,360.43,361.05,360.26,345.1,0.1575,19400,3,0.98
671,360.0,358.18,359.63,359.61,359.33,361.19,360.37,361.01,360.32,345.16,0.1575,19400,3,0.98
672,360.0,358.19,359.65,359.6,359.35,361.21,360.35,360.99,360.38,345.26,0.1575,19400,3,0.98
673,359.99,358.23,359.65,359.61,359.38,361.25,360.33,361.01,360.42,345.35,0.1575,19400,3,0.98
674,359.99,358.29,359.66,359.62,359.41,361.29,360.32,361.04,360.43,345.42,0.1575,19400,3,0.98
675,360.01,358.34,359.66,359.65,359.43,361.34,360.31,361.07,360.44,345.47,0.1575,19400,3,0.98
676,359.99,358.38,359.66,359.69,359.44,361.39,360.29,361.09,360.44,345.53,0.1575,19400,3,0.98
677,359.96,358.3,359.65,359.72,359.48,361.41,360.31,361.1,360.44,345.59,0.1575,19400,3,0.98
678,359.91,358.16,359.64,359.78,359.51,361.43,360.31,361.13,360.45,345.66,0.1575,19400,3,0.98
679,359.88,358.02,359.61,359.83,359.53,361.46,360.32,361.16,360.45,345.74,0.1575,19400,3,0.98
680,359.85,357.94,359.58,359.89,359.56,361.48,360.33,361.19,360.45,345.83,0.1575,19400,3,0.98
681,359.83,357.89,359.56,359.93,359.61,361.51,360.36,361.19,360.36,345.92,0.1575,19400,3,0.98
682,359.8,357.87,359.53,359.97,359.65,361.54,360.35,361.22,360.26,345.96,0.1575,19400,3,0.98
683,359.77,357.86,359.52,360.0,359.66,361.56,360.34,361.22,360.21,345.96,0.1575,19400,3,0.98
684,359.74,357.86,359.5,360.0,359.69,361.57,360.34,361.23,360.18,345.99,0.1575,19400,3,0.98
685,359.68,357.84,359.49,360.0,359.7,361.56,360.35,361.22,360.18,346.01,0.1575,19400,3,0.98
686,359.63,357.81,359.5,360.01,359.71,361.57,360.38,361.21,360.19,346.05,0.1575,19400,3,0.98
687,359.59,357.8,359.48,360.02,359.71,361.58,360.41,361.19,360.18,346.08,0.1575,19400,3,0.98
688,359.59,357.79,359.47,360.02,359.72,361.57,360.44,361.16,360.14,346.09,0.1575,19400,3,0.98
689,359.61,357.76,359.46,360.04,359.72,361.56,360.46,361.12,360.09,346.09,0.1575,19400,3,0.98
690,359.63,357.74,359.47,360.04,359.72,361.54,360.42,361.03,360.03,346.1,0.1575,19400,3,0.98
691,359.61,357.75,359.48,360.04,359.72,361.53,360.34,361.01,359.94,346.08,0.1575,19400,3,0.98
692,359.58,357.82,359.5,360.04,359.73,361.51,360.24,361.02,359.85,346.04,0.1575,19400,3,0.98
693,359.57,357.86,359.5,360.04,359.72,361.49,360.16,361.04,359.74,345.99,0.1575,19400,3,0.98
694,359.55,357.87,359.48,360.06,359.71,361.46,360.1,361.07,359.54,345.94,0.1575,19400,3,0.98
695,359.55,357.87,359.47,360.06,359.7,361.43,360.1,361.03,359.29,345.85,0.1575,19400,3,0.98
696,359.57,357.85,359.46,360.07,359.69,361.41,360.13,360.89,359.1,345.78,0.1575,19400,3,0.98
697,359.59,357.84,359.48,360.07,359.69,361.37,360.18,360.71,358.97,345.73,0.1575,19400,3,0.98
698,359.58,357.81,359.48,360.07,359.68,361.34,360.23,360.61,358.89,345.72,0.1575,19400,3,0.98
699,359.5,357.77,359.49,360.07,359.68,361.3,360.3,360.6,358.84,345.73,0.1575,19400,3,0.98
700,359.41,357.71,359.49,360.06,359.68,361.25,360.34,360.73,358.81,345.74,0.1575,19400,3,0.98
701,359.37,357.69,359.48,360.07,359.68,361.22,360.34,360.86,358.75,345.74,0.1575,19400,3,0.98
702,359.41,357.7,359.47,360.06,359.68,361.18,360.34,360.93,358.72,345.72,0.1575,19400,3,0.98
703,359.46,357.72,359.46,360.05,359.68,361.15,360.35,361.0,358.68,345.71,0.1575,19400,3,0.98
704,359.46,357.77,359.45,360.03,359.68,361.12,360.36,361.08,358.63,345.71,0.1575,19400,3,0.98
705,359.45,357.81,359.47,360.01,359.69,361.1,360.37,361.11,358.56,345.71,0.1575,19400,3,0.98
706,359.42,357.86,359.47,359.97,359.69,361.11,360.4,361.12,358.5,345.7,0.1575,19400,3,0.98
707,359.41,357.91,359.48,359.93,359.69,361.12,360.41,361.13,358.47,345.7,0.1575,19400,3,0.98
708,359.44,357.92,359.48,359.91,359.67,361.17,360.43,361.09,358.49,345.63,0.1575,19400,3,0.98
709,359.54,357.9,359.49,359.9,359.65,361.2,360.49,361.01,358.5,345.54,0.1575,19400,3,0.98
710,359.65,357.87,359.49,359.89,359.63,361.23,360.48,360.97,358.46,345.46,0.1575,19400,3,0.98
711,359.77,357.87,359.51,359.91,359.62,361.26,360.43,360.99,358.43,345.41,0.1575,19400,3,0.98
712,359.83,357.82,359.51,359.91,359.59,361.27,360.36,360.99,358.44,345.38,0.1575,19400,3,0.98
713,359.86,357.81,359.5,359.93,359.59,361.28,360.32,360.99,358.43,345.34,0.1575,19400,3,0.98
714,359.83,357.77,359.48,359.95,359.57,361.29,360.31,360.98,358.44,345.28,0.1575,19400,3,0.98
715,359.76,357.72,359.45,359.96,359.56,361.3,360.3,360.97,358.43,345.26,0.1575,19400,3,0.98
716,359.68,357.66,359.4,359.97,359.54,361.32,360.26,360.95,358.39,345.24,0.1575,19400,3,0.98
717,359.65,357.61,359.39,359.96,359.52,361.33,360.21,360.94,358.44,345.24,0.1575,19400,3,0.98
718,359.64,357.61,359.38,359.95,359.52,361.33,360.21,360.93,358.54,345.22,0.1575,19400,3,0.98
719,359.6,357.64,359.36,359.93,359.52,361.34,360.2,360.9,358.63,345.21,0.1575,19400,3,0.98
720,359.55,357.68,359.34,359.92,359.54,361.36,360.21,360.89,358.76,345.21,0.1575,19400,3,0.98
721,359.51,357.73,359.31,359.9,359.54,361.36,360.19,360.9,358.85,345.22,0.1575,19400,3,0.98
722,359.49,357.78,359.29,359.88,359.54,361.36,360.18,360.92,358.95,345.22,0.1575,19400,3,0.98
723,359.52,357.82,359.26,359.86,359.54,361.37,360.17,360.96,359.02,345.22,0.1575,19400,3,0.98
724,359.55,357.86,359.25,359.82,359.53,361.37,360.17,361.01,359.11,345.27,0.1575,19400,3,0.98
