Time,TC1_tip,TC2,TC3,TC4,TC5,TC6,TC7,TC8,TC9,TC10,h,flux,abs,surf
868,359.48,359.5,360.12,360.68,359.99,362.0,359.48,360.02,356.84,330.73,0.1575,19400,3,0.76
869,359.48,359.52,360.13,360.69,359.98,362.0,359.56,360.15,357.06,330.77,0.1575,19400,3,0.76
870,359.54,359.61,360.16,360.76,359.99,362.04,359.7,360.37,357.32,330.81,0.1575,19400,3,0.76
871,359.62,359.7,360.2,360.84,360.02,362.1,359.86,360.59,357.6,330.88,0.1575,19400,3,0.76
872,359.75,359.89,360.31,360.94,360.1,362.16,360.09,360.78,358.0,331.05,0.1575,19400,3,0.76
873,359.88,360.09,360.43,361.02,360.19,362.24,360.34,360.95,358.37,331.24,0.1575,19400,3,0.76
874,359.97,360.2,360.5,361.09,360.25,362.31,360.48,361.03,358.58,331.37,0.1575,19400,3,0.76
875,360.05,360.32,360.58,361.16,360.3,362.4,360.59,361.14,358.76,331.5,0.1575,19400,3,0.76
876,360.12,360.43,360.65,361.25,360.35,362.52,360.68,361.25,358.92,331.61,0.1575,19400,3,0.76
877,360.17,360.51,360.72,361.32,360.41,362.61,360.75,361.37,359.03,331.7,0.1575,19400,3,0.76
878,360.23,360.58,360.8,361.4,360.48,362.71,360.83,361.5,359.14,331.77,0.1575,19400,3,0.76
879,360.28,360.61,360.87,361.45,360.54,362.75,360.9,361.59,359.23,331.84,0.1575,19400,3,0.76
880,360.35,360.65,360.92,361.54,360.6,362.84,360.98,361.76,359.29,331.9,0.1575,19400,3,0.76
881,360.44,360.66,360.96,361.61,360.72,362.91,361.12,361.9,359.37,332.02,0.1575,19400,3,0.76
882,360.53,360.7,361.0,361.68,360.83,362.98,361.28,362.03,359.46,332.12,0.1575,19400,3,0.76
883,360.59,360.75,361.03,361.75,360.91,363.04,361.38,362.15,359.54,332.18,0.1575,19400,3,0.76
884,360.63,360.79,361.04,361.84,360.98,363.1,361.46,362.22,359.65,332.22,0.1575,19400,3,0.76
885,360.69,360.84,361.08,361.93,361.06,363.16,361.52,362.28,359.74,332.25,0.1575,19400,3,0.76
886,360.74,360.88,361.1,361.97,361.14,363.2,361.56,362.31,359.8,332.28,0.1575,19400,3,0.76
887,360.79,360.9,361.13,362.03,361.21,363.26,361.58,362.33,359.85,332.35,0.1575,19400,3,0.76
888,360.84,360.93,361.15,362.08,361.27,363.33,361.57,362.32,359.91,332.43,0.1575,19400,3,0.76
889,360.9,360.95,361.18,362.12,361.34,363.38,361.56,362.31,359.98,332.53,0.1575,19400,3,0.76
890,360.96,360.98,361.2,362.15,361.41,363.43,361.58,362.33,360.05,332.67,0.1575,19400,3,0.76
891,361.04,361.03,361.22,362.18,361.49,363.47,361.6,362.35,360.13,332.8,0.1575,19400,3,0.76
892,361.09,361.04,361.23,362.2,361.52,363.52,361.62,362.37,360.17,332.85,0.1575,19400,3,0.76
893,361.13,361.02,361.26,362.21,361.58,363.57,361.65,362.38,360.19,332.9,0.1575,19400,3,0.76
894,361.15,361.0,361.28,362.23,361.61,363.61,361.69,362.39,360.17,332.96,0.1575,19400,3,0.76
895,361.18,360.97,361.3,362.25,361.63,363.65,361.71,362.43,360.14,333.02,0.1575,19400,3,0.76
896,361.2,360.98,361.33,362.24,361.66,363.69,361.74,362.48,360.12,333.11,0.1575,19400,3,0.76
897,361.21,360.97,361.35,362.24,361.67,363.73,361.76,362.53,360.06,333.22,0.1575,19400,3,0.76
898,361.21,360.96,361.35,362.25,361.67,363.77,361.8,362.59,359.99,333.34,0.1575,19400,3,0.76
899,361.24,360.98,361.36,362.25,361.69,363.8,361.85,362.65,359.82,333.51,0.1575,19400,3,0.76
900,361.27,360.99,361.35,362.24,361.7,363.81,361.87,362.67,359.62,333.66,0.1575,19400,3,0.76
901,361.29,361.0,361.35,362.23,361.69,363.82,361.85,362.68,359.5,333.75,0.1575,19400,3,0.76
902,361.3,361.0,361.33,362.24,361.68,363.84,361.81,362.69,359.45,333.83,0.1575,19400,3,0.76
903,361.33,361.01,361.32,362.24,361.66,363.84,361.78,362.68,359.38,333.9,0.1575,19400,3,0.76
904,361.36,361.02,361.3,362.25,361.65,363.85,361.74,362.65,359.34,333.97,0.1575,19400,3,0.76
905,361.39,361.05,361.27,362.25,361.65,363.85,361.71,362.58,359.31,334.03,0.1575,19400,3,0.76
906,361.44,361.07,361.25,362.26,361.66,363.84,361.69,362.52,359.27,334.11,0.1575,19400,3,0.76
907,361.47,361.08,361.24,362.25,361.66,363.84,361.71,362.47,359.22,334.19,0.1575,19400,3,0.76
908,361.53,361.09,361.22,362.26,361.66,363.81,361.75,362.45,359.16,334.32,0.1575,19400,3,0.76
909,361.59,361.11,361.22,362.27,361.67,363.81,361.77,362.47,359.1,334.44,0.1575,19400,3,0.76
910,361.61,361.12,361.22,362.27,361.66,363.79,361.79,362.53,359.05,334.5,0.1575,19400,3,0.76
911,361.64,361.15,361.23,362.26,361.67,363.76,361.79,362.53,359.01,334.56,0.1575,19400,3,0.76
912,361.63,361.16,361.24,362.26,361.68,363.74,361.79,362.49,359.01,334.63,0.1575,19400,3,0.76
913,361.62,361.17,361.25,362.26,361.68,363.72,361.76,362.45,359.03,334.68,0.1575,19400,3,0.76
914,361.61,361.16,361.27,362.25,361.68,363.69,361.74,362.39,359.03,334.75,0.1575,19400,3,0.76
915,361.59,361.16,361.27,362.24,361.68,363.66,361.71,362.34,359.03,334.84,0.1575,19400,3,0.76
916,361.59,361.11,361.27,362.24,361.67,363.64,361.69,362.32,359.05,334.94,0.1575,19400,3,0.76
917,361.59,361.07,361.26,362.24,361.67,363.61,361.65,362.31,359.11,335.12,0.1575,19400,3,0.76
918,361.59,361.02,361.23,362.24,361.66,363.58,361.61,362.29,359.13,335.32,0.1575,19400,3,0.76
919,361.59,361.0,361.21,362.22,361.65,363.56,361.59,362.27,359.17,335.45,0.1575,19400,3,0.76
920,361.61,360.98,361.2,362.2,361.66,363.56,361.6,362.27,359.21,335.59,0.1575,19400,3,0.76
921,361.61,360.98,361.19,362.19,361.65,363.56,361.59,362.25,359.25,335.71,0.1575,19400,3,0.76
922,361.64,361.0,361.21,362.17,361.64,363.57,361.62,362.22,359.29,335.85,0.1575,19400,3,0.76
923,361.66,361.01,361.22,362.16,361.64,363.58,361.63,362.26,359.33,335.96,0.1575,19400,3,0.76
924,361.7,361.02,361.22,362.17,361.64,363.6,361.61,362.32,359.39,336.08,0.1575,19400,3,0.76
925,361.73,361.05,361.21,362.15,361.63,363.6,361.58,362.38,359.47,336.21,0.1575,19400,3,0.76
926,361.77,361.1,361.22,362.14,361.61,363.6,361.48,362.38,359.61,336.38,0.1575,19400,3,0.76
927,361.83,361.12,361.25,362.1,361.59,363.58,361.41,362.39,359.8,336.55,0.1575,19400,3,0.76
928,361.89,361.14,361.27,362.08,361.57,363.57,361.36,362.37,359.9,336.67,0.1575,19400,3,0.76
929,361.96,361.14,361.3,362.06,361.53,363.55,361.31,362.33,359.97,336.79,0.1575,19400,3,0.76
930,362.0,361.16,361.31,362.05,361.49,363.55,361.28,362.27,360.04,336.9,0.1575,19400,3,0.76
931,362.04,361.17,361.32,362.04,361.45,363.54,361.26,362.19,360.1,336.98,0.1575,19400,3,0.76
932,362.04,361.18,361.32,362.05,361.42,363.52,361.23,362.12,360.12,337.05,0.1575,19400,3,0.76
933,362.05,361.2,361.32,362.05,361.39,363.49,361.19,362.09,360.13,337.1,0.1575,19400,3,0.76
934,362.04,361.2,361.32,362.06,361.37,363.45,361.16,362.06,360.1,337.14,0.1575,19400,3,0.76
935,362.02,361.19,361.33,362.06,361.35,363.42,361.19,362.03,359.98,337.18,0.1575,19400,3,0.76
936,362.02,361.16,361.34,362.06,361.33,363.39,361.28,362.03,359.77,337.25,0.1575,19400,3,0.76
937,362.02,361.13,361.34,362.06,361.3,363.36,361.32,362.08,359.61,337.31,0.1575,19400,3,0.76
938,362.02,361.11,361.34,362.05,361.29,363.33,361.36,362.13,359.44,337.38,0.1575,19400,3,0.76
939,362.03,361.06,361.34,362.04,361.28,363.29,361.36,362.17,359.29,337.47,0.1575,19400,3,0.76
940,362.05,361.03,361.34,362.03,361.29,363.26,361.39,362.2,359.21,337.57,0.1575,19400,3,0.76
941,362.08,361.02,361.33,362.01,361.29,363.24,361.4,362.22,359.21,337.68,0.1575,19400,3,0.76
942,362.1,361.0,361.32,362.01,361.32,363.25,361.42,362.22,359.28,337.79,0.1575,19400,3,0.76
943,362.1,361.0,361.32,362.02,361.33,363.24,361.39,362.21,359.37,337.92,0.1575,19400,3,0.76
944,362.1,360.97,361.33,362.02,361.36,363.27,361.36,362.2,359.52,338.14,0.1575,19400,3,0.76
945,362.08,360.89,361.32,362.0,361.37,363.27,361.37,362.15,359.66,338.37,0.1575,19400,3,0.76
946,362.06,360.84,361.31,361.97,361.38,363.28,361.38,362.13,359.79,338.51,0.1575,19400,3,0.76
947,362.05,360.79,361.29,361.95,361.37,363.3,361.4,362.15,359.9,338.66,0.1575,19400,3,0.76
948,362.06,360.76,361.28,361.94,361.37,363.31,361.39,362.17,360.03,338.77,0.1575,19400,3,0.76
949,362.08,360.75,361.27,361.93,361.36,363.3,361.37,362.16,360.14,338.88,0.1575,19400,3,0.76
950,362.09,360.73,361.24,361.9,361.34,363.27,361.34,362.1,360.25,338.99,0.1575,19400,3,0.76
951,362.09,360.74,361.23,361.85,361.35,363.25,361.33,362.04,360.33,339.1,0.1575,19400,3,0.76
952,362.08,360.79,361.21,361.78,361.33,363.23,361.29,361.98,360.38,339.21,0.1575,19400,3,0.76
953,362.03,360.84,361.18,361.71,361.31,363.21,361.25,361.87,360.41,339.42,0.1575,19400,3,0.76
954,361.97,360.87,361.16,361.64,361.27,363.18,361.22,361.79,360.4,339.64,0.1575,19400,3,0.76
955,361.95,360.88,361.16,361.57,361.24,363.16,361.16,361.74,360.35,339.78,0.1575,19400,3,0.76
956,361.93,360.9,361.17,361.55,361.2,363.14,361.1,361.73,360.3,339.92,0.1575,19400,3,0.76
957,361.93,360.88,361.18,361.51,361.16,363.1,361.05,361.78,360.23,340.08,0.1575,19400,3,0.76
958,361.95,360.88,361.18,361.46,361.12,363.06,361.04,361.79,360.17,340.24,0.1575,19400,3,0.76
959,361.97,360.88,361.2,361.41,361.08,363.02,361.02,361.76,360.09,340.38,0.1575,19400,3,0.76
960,361.98,360.85,361.2,361.38,361.05,362.99,361.01,361.72,360.04,340.5,0.1575,19400,3,0.76
961,362.0,360.83,361.21,361.36,361.02,362.97,360.98,361.7,360.01,340.57,0.1575,19400,3,0.76
962,362.0,360.76,361.2,361.37,361.01,362.94,360.9,361.69,359.97,340.67,0.1575,19400,3,0.76
963,362.01,360.62,361.2,361.38,360.99,362.92,360.86,361.68,359.91,340.73,0.1575,19400,3,0.76
964,362.01,360.53,361.19,361.39,360.98,362.91,360.82,361.7,359.89,340.78,0.1575,19400,3,0.76
965,361.99,360.44,361.16,361.38,360.98,362.89,360.79,361.72,359.9,340.81,0.1575,19400,3,0.76
966,361.99,360.36,361.15,361.38,360.98,362.86,360.76,361.73,359.93,340.82,0.1575,19400,3,0.76
967,361.96,360.29,361.12,361.36,360.96,362.83,360.74,361.72,359.95,340.81,0.1575,19400,3,0.76
968,361.94,360.23,361.08,361.31,360.95,362.79,360.73,361.74,360.0,340.8,0.1575,19400,3,0.76
969,361.94,360.25,361.06,361.27,360.94,362.76,360.71,361.74,360.06,340.78,0.1575,19400,3,0.76
970,361.89,360.23,361.04,361.24,360.94,362.75,360.7,361.74,360.11,340.76,0.1575,19400,3,0.76
971,361.78,360.15,361.0,361.2,360.92,362.73,360.69,361.72,360.17,340.75,0.1575,19400,3,0.76
972,361.65,360.06,360.96,361.17,360.89,362.71,360.7,361.71,360.25,340.74,0.1575,19400,3,0.76
973,361.58,360.0,360.96,361.16,360.88,362.71,360.72,361.68,360.29,340.75,0.1575,19400,3,0.76
974,361.54,359.95,360.96,361.14,360.87,362.71,360.74,361.67,360.32,340.77,0.1575,19400,3,0.76
975,361.52,359.89,360.92,361.16,360.86,362.72,360.76,361.62,360.32,340.79,0.1575,19400,3,0.76
976,361.53,359.84,360.89,361.16,360.84,362.72,360.77,361.55,360.3,340.79,0.1575,19400,3,0.76
977,361.58,359.8,360.84,361.15,360.83,362.73,360.74,361.53,360.28,340.82,0.1575,19400,3,0.76
978,361.6,359.78,360.79,361.16,360.8,362.73,360.7,361.55,360.26,340.83,0.1575,19400,3,0.76
979,361.59,359.82,360.77,361.16,360.78,362.73,360.63,361.53,360.25,340.86,0.1575,19400,3,0.76
980,361.55,359.88,360.73,361.15,360.75,362.7,360.61,361.45,360.21,340.92,0.1575,19400,3,0.76
981,361.54,359.97,360.7,361.15,360.73,362.68,360.69,361.44,360.16,340.99,0.1575,19400,3,0.76
982,361.54,360.0,360.68,361.13,360.7,362.64,360.73,361.49,360.1,341.05,0.1575,19400,3,0.76
983,361.57,360.04,360.66,361.12,360.68,362.61,360.74,361.54,360.06,341.13,0.1575,19400,3,0.76
984,361.62,360.06,360.67,361.1,360.67,362.59,360.75,361.58,360.06,341.22,0.1575,19400,3,0.76
985,361.68,360.1,360.67,361.08,360.64,362.58,360.75,361.63,360.11,341.3,0.1575,19400,3,0.76
986,361.75,360.14,360.69,361.06,360.62,362.57,360.78,361.64,360.18,341.38,0.1575,19400,3,0.76
987,361.81,360.16,360.71,361.04,360.6,362.57,360.79,361.66,360.26,341.47,0.1575,19400,3,0.76
988,361.87,360.15,360.72,361.02,360.59,362.57,360.75,361.65,360.34,341.54,0.1575,19400,3,0.76
989,361.92,360.09,360.75,361.01,360.57,362.59,360.71,361.66,360.46,341.66,0.1575,19400,3,0.76
990,361.95,360.09,360.77,360.99,360.57,362.59,360.69,361.67,360.56,341.76,0.1575,19400,3,0.76
991,361.96,360.13,360.79,360.98,360.6,362.6,360.71,361.67,360.59,341.83,0.1575,19400,3,0.76
992,361.94,360.13,360.81,360.96,360.62,362.59,360.69,361.62,360.59,341.89,0.1575,19400,3,0.76
993,361.91,360.1,360.85,360.93,360.64,362.55,360.69,361.56,360.58,341.94,0.1575,19400,3,0.76
994,361.88,360.08,360.89,360.93,360.65,362.54,360.67,361.53,360.56,341.96,0.1575,19400,3,0.76
995,361.86,360.07,360.91,360.92,360.66,362.53,360.65,361.53,360.53,341.97,0.1575,19400,3,0.76
996,361.87,360.07,360.93,360.91,360.66,362.49,360.65,361.52,360.5,341.97,0.1575,19400,3,0.76
997,361.86,360.06,360.93,360.93,360.68,362.47,360.68,361.48,360.47,341.99,0.1575,19400,3,0.76
998,361.86,360.04,360.92,360.95,360.68,362.46,360.65,361.46,360.46,342.01,0.1575,19400,3,0.76
999,361.85,360.01,360.86,360.97,360.68,362.42,360.53,361.44,360.49,342.03,0.1575,19400,3,0.76
1000,361.84,359.99,360.83,360.98,360.69,362.39,360.47,361.41,360.53,342.03,0.1575,19400,3,0.76
1001,361.83,359.98,360.78,360.97,360.68,362.37,360.46,361.4,360.58,342.06,0.1575,19400,3,0.76
1002,361.83,360.0,360.78,360.95,360.69,362.33,360.45,361.38,360.61,342.09,0.1575,19400,3,0.76
1003,361.81,359.99,360.77,360.93,360.7,362.31,360.46,361.36,360.62,342.14,0.1575,19400,3,0.76
1004,361.8,359.99,360.79,360.91,360.7,362.3,360.47,361.36,360.64,342.19,0.1575,19400,3,0.76
1005,361.79,360.02,360.8,360.89,360.71,362.29,360.45,361.35,360.61,342.24,0.1575,19400,3,0.76
1006,361.78,360.04,360.81,360.89,360.7,362.3,360.45,361.36,360.58,342.26,0.1575,19400,3,0.76
1007,361.75,360.06,360.81,360.91,360.7,362.31,360.49,361.36,360.49,342.28,0.1575,19400,3,0.76
1008,361.68,360.05,360.82,360.95,360.69,362.31,360.51,361.32,360.42,342.3,0.1575,19400,3,0.76
1009,361.64,360.02,360.8,360.99,360.67,362.3,360.51,361.22,360.37,342.29,0.1575,19400,3,0.76
1010,361.6,359.99,360.8,361.02,360.68,362.29,360.51,361.12,360.31,342.3,0.1575,19400,3,0.76
1011,361.56,359.94,360.8,361.04,360.67,362.28,360.51,361.05,360.22,342.31,0.1575,19400,3,0.76
1012,361.51,359.89,360.79,361.07,360.68,362.28,360.51,361.01,360.14,342.3,0.1575,19400,3,0.76
1013,361.45,359.84,360.8,361.07,360.69,362.28,360.49,360.97,360.07,342.3,0.1575,19400,3,0.76
1014,361.4,359.79,360.8,361.07,360.69,362.26,360.48,360.94,360.01,342.3,0.1575,19400,3,0.76
1015,361.36,359.75,360.75,361.07,360.68,362.27,360.45,360.97,359.97,342.28,0.1575,19400,3,0.76
1016,361.33,359.73,360.69,361.06,360.69,362.29,360.46,360.95,359.92,342.33,0.1575,19400,3,0.76
1017,361.31,359.73,360.61,361.04,360.67,362.29,360.5,360.93,359.88,342.39,0.1575,19400,3,0.76
1018,361.32,359.76,360.56,361.02,360.68,362.29,360.52,360.96,359.9,342.47,0.1575,19400,3,0.76
1019,361.35,359.8,360.49,361.01,360.67,362.3,360.55,361.01,359.94,342.55,0.1575,19400,3,0.76
1020,361.36,359.82,360.43,361.01,360.67,362.29,360.54,361.01,359.98,342.61,0.1575,19400,3,0.76
1021,361.36,359.84,360.38,361.0,360.67,362.3,360.57,360.99,360.02,342.65,0.1575,19400,3,0.76
1022,361.36,359.85,360.31,360.99,360.65,362.3,360.55,360.99,360.06,342.69,0.1575,19400,3,0.76
1023,361.36,359.88,360.27,360.95,360.64,362.29,360.54,360.97,360.1,342.75,0.1575,19400,3,0.76
1024,361.35,359.89,360.21,360.91,360.64,362.3,360.55,361.01,360.12,342.81,0.1575,19400,3,0.76
1025,361.33,359.89,360.15,360.86,360.61,362.29,360.53,361.05,360.13,342.88,0.1575,19400,3,0.76
1026,361.32,359.89,360.12,360.84,360.57,362.29,360.51,361.1,360.13,342.94,0.1575,19400,3,0.76
1027,361.35,359.91,360.14,360.81,360.56,362.29,360.46,361.13,360.11,342.99,0.1575,19400,3,0.76
1028,361.38,359.95,360.18,360.8,360.53,362.29,360.4,361.1,360.08,343.04,0.1575,19400,3,0.76
1029,361.42,359.98,360.25,360.79,360.51,362.3,360.36,361.02,360.06,343.11,0.1575,19400,3,0.76
1030,361.43,359.98,360.32,360.79,360.48,362.31,360.36,360.92,360.06,343.16,0.1575,19400,3,0.76
1031,361.47,359.97,360.39,360.78,360.46,362.3,360.37,360.82,360.05,343.19,0.1575,19400,3,0.76
1032,361.48,359.96,360.44,360.77,360.44,362.3,360.38,360.75,360.04,343.2,0.1575,19400,3,0.76
1033,361.48,359.94,360.48,360.76,360.42,362.31,360.37,360.71,360.02,343.2,0.1575,19400,3,0.76
1034,361.45,359.9,360.52,360.76,360.39,362.31,360.32,360.67,359.95,343.19,0.1575,19400,3,0.76
1035,361.42,359.85,360.54,360.77,360.36,362.3,360.23,360.64,359.87,343.16,0.1575,19400,3,0.76
1036,361.41,359.79,360.57,360.81,360.34,362.31,360.16,360.62,359.84,343.15,0.1575,19400,3,0.76
1037,361.43,359.75,360.59,360.85,360.33,362.31,360.11,360.6,359.8,343.16,0.1575,19400,3,0.76
1038,361.45,359.72,360.59,360.89,360.33,362.31,360.09,360.61,359.77,343.2,0.1575,19400,3,0.76
1039,361.48,359.73,360.57,360.93,360.34,362.31,360.07,360.61,359.71,343.24,0.1575,19400,3,0.76
1040,361.51,359.72,360.54,360.95,360.36,362.32,360.08,360.6,359.68,343.28,0.1575,19400,3,0.76
1041,361.55,359.69,360.52,360.96,360.38,362.31,360.08,360.59,359.67,343.31,0.1575,19400,3,0.76
1042,361.58,359.64,360.49,360.98,360.39,362.31,360.07,360.59,359.67,343.33,0.1575,19400,3,0.76
1043,361.59,359.59,360.51,361.0,360.41,362.3,360.16,360.55,359.68,343.35,0.1575,19400,3,0.76
1044,361.55,359.62,360.55,361.0,360.42,362.27,360.28,360.48,359.7,343.36,0.1575,19400,3,0.76
1045,361.52,359.68,360.58,361.03,360.42,362.23,360.36,360.49,359.7,343.36,0.1575,19400,3,0.76
1046,361.48,359.74,360.59,361.02,360.43,362.2,360.38,360.57,359.69,343.35,0.1575,19400,3,0.76
1047,361.45,359.77,360.57,361.04,360.45,362.2,360.39,360.61,359.67,343.36,0.1575,19400,3,0.76
1048,361.44,359.79,360.56,361.04,360.47,362.2,360.4,360.66,359.65,343.38,0.1575,19400,3,0.76
1049,361.44,359.78,360.54,361.04,360.5,362.21,360.37,360.76,359.63,343.41,0.1575,19400,3,0.76
1050,361.43,359.77,360.5,361.03,360.52,362.25,360.35,360.8,359.55,343.42,0.1575,19400,3,0.76
1051,361.39,359.76,360.45,361.04,360.53,362.3,360.34,360.8,359.47,343.42,0.1575,19400,3,0.76
1052,361.34,359.76,360.41,361.04,360.56,362.34,360.34,360.92,359.45,343.4,0.1575,19400,3,0.76
1053,361.24,359.76,360.37,361.03,360.56,362.37,360.35,361.06,359.44,343.37,0.1575,19400,3,0.76
1054,361.15,359.72,360.37,361.02,360.55,362.4,360.36,361.1,359.42,343.36,0.1575,19400,3,0.76
1055,361.07,359.66,360.35,360.98,360.53,362.41,360.36,361.13,359.41,343.4,0.1575,19400,3,0.76
1056,361.01,359.65,360.38,360.96,360.52,362.41,360.39,361.17,359.42,343.45,0.1575,19400,3,0.76
1057,360.96,359.61,360.39,360.94,360.49,362.42,360.4,361.2,359.44,343.47,0.1575,19400,3,0.76
1058,360.94,359.57,360.38,360.91,360.47,362.41,360.41,361.23,359.49,343.47,0.1575,19400,3,0.76
1059,360.94,359.54,360.38,360.9,360.44,362.4,360.42,361.26,359.58,343.46,0.1575,19400,3,0.76
1060,360.96,359.53,360.37,360.89,360.41,362.39,360.42,361.3,359.69,343.44,0.1575,19400,3,0.76
1061,360.94,359.53,360.36,360.87,360.38,362.37,360.4,361.3,359.9,343.45,0.1575,19400,3,0.76
1062,360.91,359.55,360.35,360.85,360.37,362.37,360.34,361.23,360.07,343.48,0.1575,19400,3,0.76
1063,360.87,359.55,360.32,360.84,360.35,362.36,360.32,361.12,360.18,343.5,0.1575,19400,3,0.76
1064,360.83,359.54,360.27,360.84,360.35,362.34,360.32,360.98,360.27,343.56,0.1575,19400,3,0.76
1065,360.79,359.52,360.22,360.85,360.36,362.31,360.31,360.87,360.34,343.63,0.1575,19400,3,0.76
1066,360.71,359.5,360.18,360.87,360.36,362.29,360.25,360.79,360.38,343.72,0.1575,19400,3,0.76
1067,360.64,359.46,360.17,360.88,360.36,362.26,360.18,360.72,360.39,343.8,0.1575,19400,3,0.76
1068,360.59,359.39,360.17,360.88,360.36,362.25,360.09,360.65,360.36,343.85,0.1575,19400,3,0.76
1069,360.54,359.28,360.18,360.9,360.38,362.24,360.05,360.56,360.34,343.89,0.1575,19400,3,0.76
1070,360.49,359.13,360.15,360.92,360.38,362.24,360.03,360.52,360.29,343.89,0.1575,19400,3,0.76
1071,360.48,358.98,360.14,360.92,360.39,362.23,360.05,360.46,360.27,343.86,0.1575,19400,3,0.76
1072,360.48,358.89,360.13,360.92,360.41,362.24,360.1,360.4,360.25,343.84,0.1575,19400,3,0.76
1073,360.48,358.82,360.12,360.91,360.41,362.25,360.16,360.41,360.22,343.82,0.1575,19400,3,0.76
1074,360.46,358.79,360.12,360.88,360.42,362.26,360.22,360.43,360.18,343.8,0.1575,19400,3,0.76
1075,360.45,358.77,360.12,360.85,360.44,362.26,360.21,360.5,360.17,343.8,0.1575,19400,3,0.76
1076,360.46,358.77,360.12,360.83,360.44,362.26,360.12,360.6,360.12,343.81,0.1575,19400,3,0.76
1077,360.47,358.77,360.12,360.83,360.43,362.26,359.99,360.65,360.05,343.84,0.1575,19400,3,0.76
1078,360.5,358.79,360.15,360.81,360.43,362.25,359.89,360.68,360.03,343.85,0.1575,19400,3,0.76
1079,360.51,358.8,360.19,360.79,360.44,362.24,359.8,360.7,360.01,343.91,0.1575,19400,3,0.76
1080,360.53,358.83,360.24,360.78,360.45,362.22,359.73,360.72,360.02,343.98,0.1575,19400,3,0.76
