Time,TC1_tip,TC2,TC3,TC4,TC5,TC6,TC7,TC8,TC9,TC10,h,flux,abs,surf
0,359.9,359.65,360.2,360.77,360.17,362.18,359.78,359.78,354.86,325.15,0.1575,25900,3,0.76
1,359.88,359.64,360.19,360.77,360.17,362.18,359.84,359.69,354.88,325.14,0.1575,25900,3,0.76
2,359.94,359.75,360.24,360.82,360.2,362.21,360.02,359.81,355.05,325.2,0.1575,25900,3,0.76
3,360.06,359.91,360.33,360.91,360.27,362.29,360.21,359.97,355.33,325.3,0.1575,25900,3,0.76
4,360.19,360.08,360.42,361.03,360.36,362.4,360.36,360.16,355.68,325.45,0.1575,25900,3,0.76
5,360.34,360.26,360.53,361.15,360.46,362.51,360.54,360.34,356.07,325.63,0.1575,25900,3,0.76
6,360.48,360.41,360.64,361.3,360.56,362.64,360.73,360.55,356.5,325.82,0.1575,25900,3,0.76
7,360.68,360.6,360.82,361.4,360.73,362.73,361.05,360.73,357.13,326.11,0.1575,25900,3,0.76
8,360.88,360.77,360.96,361.55,360.89,362.86,361.33,360.96,357.68,326.38,0.1575,25900,3,0.76
9,360.99,360.83,361.05,361.7,361.0,362.99,361.52,361.17,357.99,326.52,0.1575,25900,3,0.76
10,361.11,360.91,361.14,361.84,361.11,363.12,361.69,361.4,358.25,326.65,0.1575,25900,3,0.76
11,361.23,360.99,361.22,361.96,361.21,363.24,361.81,361.63,358.45,326.76,0.1575,25900,3,0.76
12,361.33,361.06,361.3,362.08,361.3,363.35,361.93,361.84,358.63,326.86,0.1575,25900,3,0.76
13,361.44,361.15,361.4,362.19,361.37,363.46,362.04,361.99,358.76,326.95,0.1575,25900,3,0.76
14,361.53,361.24,361.49,362.28,361.46,363.53,362.14,362.07,358.9,327.07,0.1575,25900,3,0.76
15,361.69,361.36,361.62,362.4,361.59,363.62,362.26,362.22,359.07,327.23,0.1575,25900,3,0.76
16,361.84,361.48,361.73,362.51,361.71,363.7,362.32,362.4,359.25,327.42,0.1575,25900,3,0.76
17,361.94,361.55,361.81,362.58,361.79,363.78,362.36,362.59,359.36,327.55,0.1575,25900,3,0.76
18,362.02,361.58,361.87,362.67,361.85,363.86,362.41,362.8,359.45,327.69,0.1575,25900,3,0.76
19,362.1,361.63,361.91,362.73,361.92,363.93,362.48,362.95,359.54,327.84,0.1575,25900,3,0.76
20,362.19,361.7,361.97,362.81,361.97,364.02,362.55,363.1,359.65,328.03,0.1575,25900,3,0.76
21,362.27,361.78,362.02,362.86,362.02,364.08,362.61,363.2,359.76,328.22,0.1575,25900,3,0.76
22,362.36,361.88,362.04,362.92,362.06,364.14,362.64,363.32,359.87,328.4,0.1575,25900,3,0.76
23,362.44,361.99,362.08,362.98,362.12,364.2,362.7,363.4,360.02,328.62,0.1575,25900,3,0.76
24,362.57,362.09,362.11,363.04,362.2,364.25,362.75,363.5,360.27,328.92,0.1575,25900,3,0.76
25,362.68,362.18,362.13,363.09,362.28,364.29,362.81,363.59,360.56,329.21,0.1575,25900,3,0.76
26,362.75,362.24,362.14,363.16,362.34,364.32,362.88,363.64,360.74,329.43,0.1575,25900,3,0.76
27,362.79,362.29,362.15,363.21,362.4,364.36,362.96,363.68,360.9,329.66,0.1575,25900,3,0.76
28,362.81,362.35,362.15,363.23,362.46,364.38,363.02,363.7,361.05,329.88,0.1575,25900,3,0.76
29,362.82,362.39,362.16,363.26,362.52,364.43,363.07,363.71,361.18,330.12,0.1575,25900,3,0.76
30,362.85,362.43,362.17,363.29,362.58,364.47,363.12,363.69,361.3,330.36,0.1575,25900,3,0.76
31,362.89,362.47,362.19,363.32,362.63,364.52,363.15,363.7,361.38,330.59,0.1575,25900,3,0.76
32,362.91,362.5,362.18,363.35,362.66,364.56,363.17,363.68,361.44,330.82,0.1575,25900,3,0.76
33,362.93,362.52,362.18,363.37,362.7,364.61,363.16,363.66,361.48,331.06,0.1575,25900,3,0.76
34,362.95,362.54,362.21,363.39,362.75,364.64,363.16,363.63,361.54,331.43,0.1575,25900,3,0.76
35,362.98,362.56,362.25,363.4,362.78,364.67,363.11,363.58,361.59,331.85,0.1575,25900,3,0.76
36,362.99,362.57,362.29,363.41,362.8,364.68,363.01,363.53,361.61,332.12,0.1575,25900,3,0.76
37,363.03,362.61,362.33,363.41,362.8,364.7,362.89,363.48,361.62,332.37,0.1575,25900,3,0.76
38,363.07,362.64,362.35,363.43,362.82,364.7,362.79,363.42,361.61,332.61,0.1575,25900,3,0.76
39,363.11,362.67,362.37,363.44,362.82,364.7,362.71,363.38,361.57,332.84,0.1575,25900,3,0.76
40,363.15,362.72,362.4,363.43,362.83,364.7,362.65,363.38,361.52,333.09,0.1575,25900,3,0.76
41,363.21,362.75,362.42,363.44,362.86,364.71,362.59,363.36,361.49,333.33,0.1575,25900,3,0.76
42,363.29,362.78,362.45,363.43,362.87,364.72,362.6,363.34,361.47,333.71,0.1575,25900,3,0.76
43,363.38,362.82,362.47,363.44,362.86,364.73,362.64,363.37,361.46,334.09,0.1575,25900,3,0.76
44,363.44,362.83,362.47,363.43,362.86,364.74,362.69,363.35,361.46,334.32,0.1575,25900,3,0.76
45,363.51,362.86,362.46,363.43,362.86,364.77,362.78,363.31,361.46,334.54,0.1575,25900,3,0.76
46,363.57,362.86,362.42,363.41,362.84,364.79,362.86,363.37,361.48,334.73,0.1575,25900,3,0.76
47,363.62,362.88,362.38,363.41,362.85,364.79,362.91,363.5,361.5,334.9,0.1575,25900,3,0.76
48,363.66,362.89,362.36,363.42,362.84,364.8,362.96,363.63,361.49,335.06,0.1575,25900,3,0.76
49,363.71,362.9,362.34,363.42,362.84,364.81,363.01,363.75,361.53,335.24,0.1575,25900,3,0.76
50,363.77,362.91,362.34,363.39,362.84,364.82,362.99,363.84,361.62,335.43,0.1575,25900,3,0.76
51,363.81,362.92,362.36,363.37,362.83,364.81,362.89,363.86,361.77,335.64,0.1575,25900,3,0.76
52,363.83,362.91,362.41,363.37,362.82,364.78,362.72,363.75,362.0,335.97,0.1575,25900,3,0.76
53,363.8,362.91,362.46,363.36,362.8,364.77,362.68,363.61,362.18,336.31,0.1575,25900,3,0.76
54,363.78,362.91,362.52,363.35,362.78,364.74,362.72,363.5,362.27,336.53,0.1575,25900,3,0.76
55,363.75,362.92,362.54,363.34,362.75,364.74,362.76,363.39,362.3,336.73,0.1575,25900,3,0.76
56,363.74,362.93,362.57,363.33,362.73,364.73,362.8,363.33,362.33,336.92,0.1575,25900,3,0.76
57,363.76,362.92,362.59,363.33,362.7,364.71,362.83,363.27,362.34,337.1,0.1575,25900,3,0.76
58,363.82,362.9,362.59,363.33,362.68,364.68,362.87,363.27,362.35,337.27,0.1575,25900,3,0.76
59,363.86,362.87,362.61,363.33,362.66,364.66,362.91,363.24,362.31,337.42,0.1575,25900,3,0.76
60,363.85,362.88,362.6,363.31,362.65,364.65,362.92,363.31,362.27,337.62,0.1575,25900,3,0.76
61,363.81,362.85,362.6,363.3,362.63,364.61,362.94,363.41,362.19,337.79,0.1575,25900,3,0.76
62,363.77,362.8,362.6,363.29,362.61,364.6,362.97,363.49,362.09,337.91,0.1575,25900,3,0.76
63,363.74,362.73,362.63,363.27,362.59,364.58,362.97,363.51,362.03,338.03,0.1575,25900,3,0.76
64,363.71,362.68,362.63,363.24,362.56,364.55,362.97,363.51,362.01,338.15,0.1575,25900,3,0.76
65,363.68,362.62,362.66,363.2,362.53,364.51,362.99,363.47,361.98,338.28,0.1575,25900,3,0.76
66,363.66,362.6,362.65,363.17,362.49,364.45,362.99,363.52,361.91,338.4,0.1575,25900,3,0.76
67,363.65,362.6,362.65,363.15,362.47,364.4,363.01,363.61,361.86,338.54,0.1575,25900,3,0.76
68,363.62,362.6,362.63,363.15,362.42,364.36,363.01,363.66,361.78,338.68,0.1575,25900,3,0.76
69,363.61,362.62,362.63,363.14,362.4,364.31,363.02,363.66,361.76,338.82,0.1575,25900,3,0.76
70,363.59,362.62,362.61,363.12,362.4,364.3,362.98,363.66,361.79,339.0,0.1575,25900,3,0.76
71,363.58,362.56,362.58,363.1,362.41,364.27,362.93,363.66,361.86,339.19,0.1575,25900,3,0.76
72,363.61,362.53,362.53,363.07,362.43,364.27,362.89,363.63,361.97,339.31,0.1575,25900,3,0.76
73,363.65,362.48,362.51,363.03,362.46,364.28,362.85,363.6,362.09,339.42,0.1575,25900,3,0.76
74,363.68,362.45,362.46,363.01,362.47,364.29,362.81,363.64,362.19,339.54,0.1575,25900,3,0.76
75,363.73,362.44,362.42,362.98,362.5,364.28,362.76,363.64,362.29,339.66,0.1575,25900,3,0.76
76,363.77,362.44,362.4,362.94,362.5,364.29,362.72,363.61,362.36,339.78,0.1575,25900,3,0.76
77,363.81,362.47,362.38,362.9,362.51,364.29,362.7,363.58,362.44,339.92,0.1575,25900,3,0.76
78,363.87,362.5,362.37,362.84,362.5,364.3,362.72,363.58,362.57,340.17,0.1575,25900,3,0.76
79,363.93,362.49,362.37,362.81,362.49,364.31,362.77,363.58,362.63,340.43,0.1575,25900,3,0.76
80,363.94,362.46,362.36,362.81,362.47,364.32,362.81,363.58,362.61,340.59,0.1575,25900,3,0.76
81,363.95,362.45,362.36,362.83,362.46,364.33,362.85,363.58,362.6,340.75,0.1575,25900,3,0.76
82,363.91,362.45,362.35,362.83,362.46,364.32,362.86,363.56,362.62,340.91,0.1575,25900,3,0.76
83,363.86,362.46,362.32,362.84,362.46,364.34,362.83,363.54,362.66,341.07,0.1575,25900,3,0.76
84,363.82,362.46,362.29,362.83,362.46,364.34,362.78,363.52,362.71,341.24,0.1575,25900,3,0.76
85,363.78,362.46,362.26,362.81,362.45,364.35,362.71,363.49,362.77,341.41,0.1575,25900,3,0.76
86,363.77,362.45,362.24,362.8,362.45,364.37,362.65,363.5,362.82,341.55,0.1575,25900,3,0.76
87,363.76,362.42,362.21,362.76,362.43,364.37,362.58,363.48,362.85,341.75,0.1575,25900,3,0.76
88,363.77,362.4,362.21,362.74,362.42,364.37,362.53,363.44,362.85,341.93,0.1575,25900,3,0.76
89,363.78,362.42,362.22,362.71,362.42,364.37,362.52,363.4,362.83,342.03,0.1575,25900,3,0.76
90,363.76,362.42,362.23,362.69,362.41,364.36,362.46,363.41,362.77,342.12,0.1575,25900,3,0.76
91,363.73,362.43,362.26,362.67,362.4,364.36,362.4,363.43,362.69,342.21,0.1575,25900,3,0.76
92,363.67,362.44,362.28,362.64,362.4,364.36,362.3,363.51,362.66,342.3,0.1575,25900,3,0.76
93,363.61,362.47,362.3,362.62,362.39,364.36,362.21,363.56,362.63,342.37,0.1575,25900,3,0.76
94,363.55,362.44,362.33,362.61,362.39,364.36,362.13,363.57,362.58,342.46,0.1575,25900,3,0.76
95,363.54,362.39,362.36,362.61,362.39,364.36,362.06,363.54,362.52,342.54,0.1575,25900,3,0.76
96,363.51,362.32,362.39,362.62,362.39,364.35,361.98,363.52,362.5,342.61,0.1575,25900,3,0.76
97,363.51,362.25,362.41,362.63,362.39,364.33,361.95,363.5,362.53,342.73,0.1575,25900,3,0.76
98,363.51,362.23,362.43,362.62,362.39,364.33,361.94,363.49,362.63,342.84,0.1575,25900,3,0.76
99,363.48,362.23,362.44,362.63,362.38,364.34,361.96,363.49,362.7,342.93,0.1575,25900,3,0.76
100,363.44,362.23,362.45,362.63,362.4,364.34,362.02,363.42,362.74,343.02,0.1575,25900,3,0.76
101,363.4,362.22,362.46,362.64,362.41,364.35,362.02,363.31,362.78,343.13,0.1575,25900,3,0.76
102,363.34,362.21,362.47,362.65,362.43,364.35,362.02,363.19,362.79,343.22,0.1575,25900,3,0.76
103,363.28,362.19,362.46,362.66,362.44,364.35,362.07,363.11,362.78,343.3,0.1575,25900,3,0.76
104,363.21,362.19,362.46,362.67,362.45,364.36,362.16,363.09,362.76,343.39,0.1575,25900,3,0.76
105,363.15,362.21,362.47,362.68,362.47,364.36,362.26,363.1,362.71,343.47,0.1575,25900,3,0.76
106,363.09,362.24,362.48,362.71,362.5,364.38,362.31,363.17,362.61,343.59,0.1575,25900,3,0.76
107,363.08,362.27,362.5,362.74,362.51,364.39,362.36,363.19,362.52,343.71,0.1575,25900,3,0.76
108,363.11,362.32,362.5,362.79,362.53,364.4,362.39,363.14,362.51,343.79,0.1575,25900,3,0.76
109,363.16,362.36,362.5,362.84,362.54,364.41,362.44,363.07,362.52,343.86,0.1575,25900,3,0.76
110,363.21,362.39,362.5,362.89,362.56,364.42,362.49,362.99,362.51,343.94,0.1575,25900,3,0.76
111,363.28,362.37,362.49,362.94,362.56,364.43,362.49,362.95,362.48,344.03,0.1575,25900,3,0.76
112,363.35,362.33,362.49,362.98,362.58,364.44,362.46,362.93,362.42,344.13,0.1575,25900,3,0.76
113,363.37,362.27,362.48,363.03,362.6,364.45,362.42,362.94,362.37,344.24,0.1575,25900,3,0.76
114,363.33,362.17,362.43,363.07,362.61,364.45,362.4,362.95,362.3,344.42,0.1575,25900,3,0.76
115,363.28,362.1,362.35,363.07,362.63,364.45,362.42,362.97,362.26,344.58,0.1575,25900,3,0.76
116,363.25,362.06,362.33,363.06,362.63,364.45,362.46,362.99,362.28,344.69,0.1575,25900,3,0.76
117,363.24,362.02,362.28,363.05,362.65,364.45,362.49,363.03,362.31,344.77,0.1575,25900,3,0.76
118,363.23,361.96,362.25,363.02,362.65,364.42,362.49,363.11,362.33,344.85,0.1575,25900,3,0.76
119,363.23,361.92,362.21,362.99,362.65,364.39,362.49,363.17,362.35,344.92,0.1575,25900,3,0.76
120,363.25,361.89,362.19,362.95,362.66,364.34,362.48,363.16,362.36,344.98,0.1575,25900,3,0.76
121,363.27,361.89,362.16,362.91,362.64,364.32,362.46,363.14,362.35,345.03,0.1575,25900,3,0.76
122,363.29,361.88,362.13,362.87,362.63,364.29,362.46,363.1,362.38,345.08,0.1575,25900,3,0.76
123,363.32,361.88,362.1,362.86,362.62,364.28,362.48,363.09,362.43,345.15,0.1575,25900,3,0.76
124,363.34,361.89,362.08,362.86,362.62,364.28,362.53,363.09,362.49,345.24,0.1575,25900,3,0.76
125,363.38,361.9,362.08,362.86,362.62,364.3,362.57,363.13,362.52,345.29,0.1575,25900,3,0.76
126,363.45,361.91,362.1,362.86,362.62,364.31,362.63,363.16,362.51,345.33,0.1575,25900,3,0.76
127,363.48,361.9,362.11,362.85,362.62,364.32,362.71,363.21,362.46,345.39,0.1575,25900,3,0.76
128,363.5,361.9,362.14,362.85,362.61,364.35,362.8,363.27,362.38,345.45,0.1575,25900,3,0.76
129,363.49,361.92,362.17,362.85,362.59,364.37,362.88,363.36,362.31,345.54,0.1575,25900,3,0.76
130,363.49,361.97,362.19,362.87,362.6,364.4,362.94,363.5,362.27,345.65,0.1575,25900,3,0.76
131,363.51,362.04,362.2,362.88,362.61,364.42,362.93,363.57,362.25,345.76,0.1575,25900,3,0.76
132,363.51,362.1,362.24,362.9,362.61,364.44,362.83,363.62,362.26,345.92,0.1575,25900,3,0.76
133,363.46,362.07,362.3,362.92,362.62,364.46,362.77,363.65,362.33,346.09,0.1575,25900,3,0.76
134,363.42,362.04,362.32,362.95,362.62,364.47,362.75,363.64,362.44,346.22,0.1575,25900,3,0.76
135,363.39,362.04,362.34,362.95,362.63,364.48,362.72,363.6,362.57,346.34,0.1575,25900,3,0.76
136,363.37,362.03,362.34,362.96,362.64,364.48,362.67,363.57,362.71,346.47,0.1575,25900,3,0.76
137,363.37,362.04,362.33,362.96,362.64,364.48,362.62,363.55,362.82,346.59,0.1575,25900,3,0.76
138,363.37,362.09,362.32,362.96,362.65,364.48,362.57,363.58,362.9,346.7,0.1575,25900,3,0.76
139,363.38,362.15,362.29,362.95,362.67,364.48,362.46,363.6,362.95,346.81,0.1575,25900,3,0.76
140,363.42,362.18,362.28,362.94,362.67,364.46,362.32,363.64,362.98,346.88,0.1575,25900,3,0.76
141,363.46,362.15,362.28,362.92,362.64,364.44,362.14,363.7,363.03,346.99,0.1575,25900,3,0.76
142,363.49,362.09,362.29,362.92,362.6,364.42,362.04,363.71,363.12,347.08,0.1575,25900,3,0.76
143,363.55,362.06,362.32,362.92,362.6,364.4,362.01,363.68,363.22,347.14,0.1575,25900,3,0.76
144,363.59,362.05,362.34,362.91,362.59,364.38,362.0,363.63,363.3,347.22,0.1575,25900,3,0.76
145,363.58,362.02,362.34,362.89,362.57,364.34,362.02,363.54,363.36,347.29,0.1575,25900,3,0.76
146,363.56,362.01,362.35,362.88,362.56,364.31,362.03,363.47,363.4,347.36,0.1575,25900,3,0.76
147,363.51,361.99,362.37,362.87,362.54,364.29,362.04,363.44,363.36,347.44,0.1575,25900,3,0.76
148,363.47,362.0,362.38,362.84,362.53,364.28,362.03,363.43,363.26,347.51,0.1575,25900,3,0.76
149,363.41,362.02,362.38,362.81,362.52,364.27,362.02,363.42,363.18,347.58,0.1575,25900,3,0.76
150,363.36,362.07,362.39,362.74,362.49,364.28,362.12,363.39,363.08,347.69,0.1575,25900,3,0.76
151,363.32,362.12,362.41,362.68,362.47,364.28,362.29,363.38,363.02,347.78,0.1575,25900,3,0.76
152,363.3,362.13,362.42,362.62,362.44,364.29,362.43,363.4,363.01,347.82,0.1575,25900,3,0.76
153,363.27,362.11,362.41,362.58,362.42,364.3,362.58,363.4,362.98,347.87,0.1575,25900,3,0.76
154,363.26,362.08,362.4,362.54,362.39,364.3,362.67,363.4,362.95,347.92,0.1575,25900,3,0.76
155,363.23,362.07,362.39,362.5,362.37,364.3,362.73,363.49,362.91,347.95,0.1575,25900,3,0.76
156,363.25,362.05,362.38,362.44,362.36,364.31,362.8,363.54,362.88,347.97,0.1575,25900,3,0.76
157,363.28,362.03,362.38,362.41,362.35,364.32,362.85,363.6,362.88,348.0,0.1575,25900,3,0.76
158,363.28,362.02,362.39,362.38,362.35,364.32,362.93,363.65,362.9,348.02,0.1575,25900,3,0.76
159,363.24,361.99,362.41,362.36,362.34,364.32,363.0,363.69,362.95,348.06,0.1575,25900,3,0.76
160,363.26,361.95,362.43,362.35,362.34,364.32,363.05,363.68,363.0,348.12,0.1575,25900,3,0.76
161,363.32,361.91,362.44,362.35,362.35,364.33,363.08,363.67,363.08,348.16,0.1575,25900,3,0.76
162,363.38,361.88,362.45,362.37,362.36,364.34,363.09,363.66,363.16,348.19,0.1575,25900,3,0.76
163,363.42,361.86,362.45,362.4,362.36,364.35,363.1,363.66,363.22,348.23,0.1575,25900,3,0.76
164,363.47,361.85,362.44,362.43,362.39,364.36,363.11,363.67,363.24,348.27,0.1575,25900,3,0.76
165,363.51,361.84,362.42,362.45,362.38,364.37,363.09,363.68,363.26,348.31,0.1575,25900,3,0.76
166,363.55,361.88,362.43,362.48,362.39,364.37,363.07,363.66,363.32,348.35,0.1575,25900,3,0.76
167,363.6,361.92,362.44,362.53,362.41,364.38,363.05,363.63,363.37,348.4,0.1575,25900,3,0.76
168,363.7,361.92,362.47,362.55,362.44,364.39,362.97,363.56,363.43,348.48,0.1575,25900,3,0.76
169,363.85,361.86,362.52,362.59,362.44,364.4,362.84,363.5,363.42,348.56,0.1575,25900,3,0.76
170,363.92,361.83,362.56,362.62,362.43,364.4,362.74,363.49,363.4,348.64,0.1575,25900,3,0.76
171,363.98,361.78,362.59,362.66,362.41,364.42,362.65,363.51,363.4,348.72,0.1575,25900,3,0.76
172,364.06,361.77,362.61,362.69,362.39,364.44,362.58,363.51,363.39,348.8,0.1575,25900,3,0.76
173,364.08,361.78,362.64,362.72,362.37,364.47,362.5,363.46,363.39,348.88,0.1575,25900,3,0.76
174,364.07,361.84,362.69,362.75,362.35,364.49,362.47,363.35,363.4,348.95,0.1575,25900,3,0.76
175,364.02,361.92,362.73,362.78,362.33,364.5,362.42,363.27,363.41,348.99,0.1575,25900,3,0.76
176,363.99,361.99,362.76,362.75,362.33,364.49,362.39,363.2,363.41,349.03,0.1575,25900,3,0.76
177,363.95,362.01,362.82,362.71,362.33,364.48,362.34,363.19,363.4,349.05,0.1575,25900,3,0.76
178,363.94,361.99,362.86,362.67,362.34,364.46,362.26,363.24,363.38,349.06,0.1575,25900,3,0.76
179,363.97,361.97,362.88,362.67,362.33,364.43,362.19,363.33,363.38,349.07,0.1575,25900,3,0.76
180,363.98,361.95,362.88,362.71,362.31,364.4,362.13,363.46,363.37,349.08,0.1575,25900,3,0.76
181,363.99,361.93,362.88,362.74,362.3,364.36,362.14,363.55,363.39,349.11,0.1575,25900,3,0.76
182,363.99,361.98,362.88,362.77,362.31,364.32,362.2,363.57,363.41,349.14,0.1575,25900,3,0.76
183,363.96,362.04,362.89,362.8,362.35,364.28,362.28,363.56,363.44,349.18,0.1575,25900,3,0.76
184,363.94,362.07,362.9,362.81,362.4,364.26,362.34,363.56,363.48,349.23,0.1575,25900,3,0.76
185,363.9,362.1,362.91,362.82,362.44,364.28,362.42,363.55,363.53,349.29,0.1575,25900,3,0.76
186,363.88,362.1,362.91,362.81,362.47,364.31,362.54,363.53,363.57,349.34,0.1575,25900,3,0.76
187,363.85,362.06,362.89,362.84,362.52,364.34,362.67,363.58,363.6,349.45,0.1575,25900,3,0.76
188,363.83,361.99,362.85,362.89,362.56,364.36,362.75,363.69,363.62,349.55,0.1575,25900,3,0.76
189,363.84,361.98,362.8,362.94,362.58,364.39,362.83,363.76,363.58,349.61,0.1575,25900,3,0.76
190,363.85,361.96,362.78,362.99,362.61,364.41,362.93,363.79,363.54,349.66,0.1575,25900,3,0.76
191,363.87,361.96,362.77,363.02,362.62,364.45,362.99,363.75,363.54,349.7,0.1575,25900,3,0.76
192,363.86,361.91,362.77,363.03,362.63,364.49,363.02,363.67,363.59,349.74,0.1575,25900,3,0.76
193,363.86,361.86,362.76,362.99,362.61,364.52,363.01,363.6,363.65,349.77,0.1575,25900,3,0.76
194,363.86,361.82,362.74,362.99,362.58,364.53,362.97,363.6,363.68,349.79,0.1575,25900,3,0.76
195,363.84,361.73,362.74,362.98,362.52,364.54,362.89,363.65,363.75,349.8,0.1575,25900,3,0.76
196,363.81,361.65,362.77,362.99,362.5,364.53,362.8,363.69,363.77,349.82,0.1575,25900,3,0.76
197,363.84,361.61,362.78,362.99,362.48,364.52,362.71,363.71,363.77,349.84,0.1575,25900,3,0.76
198,363.9,361.57,362.8,362.99,362.46,364.51,362.63,363.73,363.77,349.86,0.1575,25900,3,0.76
199,363.95,361.57,362.81,362.98,362.43,364.49,362.55,363.77,363.78,349.9,0.1575,25900,3,0.76
200,363.98,361.57,362.82,362.97,362.4,364.48,362.49,363.78,363.8,349.92,0.1575,25900,3,0.76
201,364.02,361.59,362.84,362.93,362.36,364.49,362.45,363.75,363.81,349.95,0.1575,25900,3,0.76
202,364.08,361.61,362.84,362.92,362.33,364.49,362.36,363.74,363.8,349.97,0.1575,25900,3,0.76
203,364.12,361.6,362.84,362.93,362.28,364.49,362.29,363.79,363.8,350.01,0.1575,25900,3,0.76
204,364.15,361.62,362.85,362.94,362.24,364.5,362.29,363.88,363.8,350.05,0.1575,25900,3,0.76
205,364.14,361.64,362.87,362.97,362.22,364.48,362.39,363.91,363.82,350.11,0.1575,25900,3,0.76
206,364.13,361.68,362.89,363.02,362.22,364.47,362.51,363.91,363.83,350.16,0.1575,25900,3,0.76
207,364.12,361.7,362.91,363.06,362.25,364.45,362.64,363.9,363.84,350.2,0.1575,25900,3,0.76
208,364.14,361.75,362.93,363.08,362.29,364.42,362.75,363.93,363.86,350.26,0.1575,25900,3,0.76
209,364.15,361.78,362.95,363.11,362.36,364.4,362.83,363.99,363.89,350.33,0.1575,25900,3,0.76
210,364.17,361.77,362.96,363.13,362.42,364.39,362.86,364.05,363.9,350.39,0.1575,25900,3,0.76
211,364.18,361.78,362.99,363.14,362.5,364.38,362.9,364.1,363.95,350.45,0.1575,25900,3,0.76
212,364.17,361.78,363.02,363.13,362.56,364.38,362.92,364.15,363.99,350.5,0.1575,25900,3,0.76
213,364.18,361.81,363.05,363.12,362.62,364.39,362.98,364.19,364.06,350.56,0.1575,25900,3,0.76
214,364.2,361.86,363.06,363.11,362.67,364.41,363.03,364.21,364.13,350.61,0.1575,25900,3,0.76
