Time,TC1_tip,TC2,TC3,TC4,TC5,TC6,TC7,TC8,TC9,TC10,h,flux,abs,surf
0,359.43,359.49,358.07,359.69,359.18,359.76,359.36,360.09,355.03,333.46,0.1575,25900,3,0.98
1,359.42,359.49,358.04,359.67,359.21,359.74,359.36,360.13,355.02,333.77,0.1575,25900,3,0.98
2,359.45,359.6,358.02,359.74,359.37,359.8,359.44,360.24,355.11,334.32,0.1575,25900,3,0.98
3,359.54,359.74,358.05,359.83,359.54,359.9,359.54,360.45,355.22,334.92,0.1575,25900,3,0.98
4,359.66,359.89,358.09,359.92,359.71,360.0,359.66,360.69,355.36,335.39,0.1575,25900,3,0.98
5,359.78,360.04,358.14,360.03,359.89,360.12,359.79,360.94,355.52,335.59,0.1575,25900,3,0.98
6,359.97,360.25,358.23,360.11,360.09,360.22,359.98,361.1,355.8,335.76,0.1575,25900,3,0.98
7,360.18,360.41,358.32,360.24,360.27,360.34,360.16,361.34,356.1,335.74,0.1575,25900,3,0.98
8,360.3,360.5,358.39,360.36,360.38,360.47,360.26,361.54,356.27,335.68,0.1575,25900,3,0.98
9,360.4,360.59,358.48,360.48,360.48,360.6,360.34,361.73,356.42,335.57,0.1575,25900,3,0.98
10,360.48,360.7,358.56,360.61,360.61,360.72,360.42,361.89,356.54,335.59,0.1575,25900,3,0.98
11,360.6,360.8,358.64,360.73,360.71,360.82,360.5,362.01,356.66,335.88,0.1575,25900,3,0.98
12,360.7,360.86,358.71,360.84,360.81,360.91,360.57,362.1,356.78,336.06,0.1575,25900,3,0.98
13,360.82,360.91,358.79,360.94,360.88,360.99,360.66,362.17,356.91,336.06,0.1575,25900,3,0.98
14,360.93,360.95,358.86,361.02,360.93,361.07,360.74,362.23,357.05,336.05,0.1575,25900,3,0.98
15,361.07,361.05,358.96,361.07,361.01,361.12,360.85,362.28,357.25,336.08,0.1575,25900,3,0.98
16,361.14,361.16,359.05,361.14,360.98,361.19,360.96,362.36,357.43,336.07,0.1575,25900,3,0.98
17,361.16,361.24,359.11,361.24,360.92,361.25,361.05,362.47,357.53,336.06,0.1575,25900,3,0.98
18,361.19,361.3,359.19,361.33,360.84,361.32,361.11,362.61,357.61,336.09,0.1575,25900,3,0.98
19,361.22,361.33,359.29,361.39,360.77,361.37,361.17,362.74,357.68,336.17,0.1575,25900,3,0.98
20,361.26,361.32,359.37,361.44,360.74,361.42,361.21,362.82,357.74,336.27,0.1575,25900,3,0.98
21,361.3,361.3,359.45,361.47,360.73,361.48,361.26,362.87,357.79,336.29,0.1575,25900,3,0.98
22,361.36,361.24,359.54,361.5,360.71,361.51,361.3,362.91,357.86,336.24,0.1575,25900,3,0.98
23,361.4,361.19,359.6,361.51,360.7,361.51,361.34,362.93,357.94,336.27,0.1575,25900,3,0.98
24,361.44,361.17,359.69,361.53,360.7,361.49,361.39,362.95,358.05,336.28,0.1575,25900,3,0.98
25,361.43,361.17,359.74,361.52,360.74,361.51,361.42,362.95,358.17,336.31,0.1575,25900,3,0.98
26,361.4,361.18,359.77,361.5,360.8,361.56,361.44,362.93,358.25,336.34,0.1575,25900,3,0.98
27,361.38,361.18,359.81,361.47,360.85,361.6,361.44,362.9,358.32,336.41,0.1575,25900,3,0.98
28,361.34,361.18,359.84,361.48,360.92,361.63,361.46,362.87,358.35,336.54,0.1575,25900,3,0.98
29,361.29,361.17,359.89,361.48,361.0,361.64,361.49,362.85,358.38,336.51,0.1575,25900,3,0.98
30,361.24,361.18,359.93,361.52,361.14,361.64,361.53,362.86,358.37,336.41,0.1575,25900,3,0.98
31,361.2,361.19,359.97,361.56,361.25,361.59,361.54,362.86,358.34,336.32,0.1575,25900,3,0.98
32,361.18,361.21,360.01,361.58,361.28,361.47,361.55,362.85,358.27,336.38,0.1575,25900,3,0.98
33,361.13,361.23,360.07,361.6,361.2,361.37,361.5,362.84,358.12,336.52,0.1575,25900,3,0.98
34,361.1,361.24,360.12,361.59,361.02,361.3,361.41,362.79,357.99,336.59,0.1575,25900,3,0.98
35,361.08,361.25,360.14,361.59,360.97,361.28,361.37,362.7,357.94,336.71,0.1575,25900,3,0.98
36,361.07,361.24,360.17,361.62,360.96,361.31,361.33,362.65,357.92,336.8,0.1575,25900,3,0.98
37,361.09,361.22,360.2,361.68,360.97,361.36,361.31,362.59,357.92,336.89,0.1575,25900,3,0.98
38,361.11,361.17,360.22,361.75,360.98,361.4,361.27,362.54,357.91,336.91,0.1575,25900,3,0.98
39,361.14,361.14,360.22,361.8,361.01,361.46,361.26,362.5,357.85,336.91,0.1575,25900,3,0.98
40,361.17,361.1,360.24,361.86,361.04,361.53,361.23,362.49,357.76,336.95,0.1575,25900,3,0.98
41,361.23,361.08,360.24,361.89,361.08,361.59,361.23,362.51,357.69,337.07,0.1575,25900,3,0.98
42,361.29,361.06,360.23,361.92,361.14,361.66,361.24,362.53,357.6,337.19,0.1575,25900,3,0.98
43,361.3,361.04,360.2,361.95,361.2,361.71,361.23,362.51,357.5,337.2,0.1575,25900,3,0.98
44,361.28,361.03,360.18,361.96,361.23,361.74,361.19,362.47,357.38,337.18,0.1575,25900,3,0.98
45,361.22,361.04,360.18,361.97,361.27,361.74,361.16,362.43,357.31,337.17,0.1575,25900,3,0.98
46,361.15,361.06,360.16,361.98,361.31,361.74,361.14,362.4,357.28,337.21,0.1575,25900,3,0.98
47,361.06,361.07,360.14,361.97,361.37,361.71,361.1,362.39,357.23,337.28,0.1575,25900,3,0.98
48,360.96,361.1,360.12,361.98,361.39,361.62,361.04,362.39,357.21,337.35,0.1575,25900,3,0.98
49,360.89,361.11,360.09,361.98,361.42,361.53,360.98,362.39,357.2,337.43,0.1575,25900,3,0.98
50,360.82,361.09,360.08,361.98,361.45,361.46,360.93,362.4,357.2,337.55,0.1575,25900,3,0.98
51,360.76,361.04,360.06,361.95,361.52,361.38,360.9,362.41,357.26,337.85,0.1575,25900,3,0.98
52,360.72,360.93,360.07,361.91,361.6,361.3,360.91,362.45,357.35,338.18,0.1575,25900,3,0.98
53,360.71,360.87,360.09,361.87,361.62,361.27,360.9,362.53,357.42,338.3,0.1575,25900,3,0.98
54,360.69,360.81,360.11,361.83,361.62,361.27,360.87,362.6,357.46,338.27,0.1575,25900,3,0.98
55,360.69,360.8,360.13,361.84,361.62,361.31,360.88,362.66,357.52,338.2,0.1575,25900,3,0.98
56,360.69,360.78,360.15,361.85,361.59,361.36,360.91,362.69,357.58,338.25,0.1575,25900,3,0.98
57,360.72,360.77,360.15,361.85,361.55,361.4,360.98,362.7,357.62,338.43,0.1575,25900,3,0.98
58,360.74,360.75,360.14,361.89,361.52,361.43,361.07,362.7,357.68,338.67,0.1575,25900,3,0.98
59,360.75,360.72,360.12,361.9,361.49,361.46,361.15,362.74,357.75,338.93,0.1575,25900,3,0.98
60,360.74,360.7,360.09,361.9,361.52,361.48,361.29,362.8,357.86,339.37,0.1575,25900,3,0.98
61,360.72,360.72,360.08,361.86,361.57,361.53,361.41,362.87,357.99,339.72,0.1575,25900,3,0.98
62,360.72,360.75,360.06,361.81,361.59,361.61,361.47,362.92,358.05,339.83,0.1575,25900,3,0.98
63,360.72,360.77,360.04,361.76,361.57,361.68,361.5,362.98,358.11,339.96,0.1575,25900,3,0.98
64,360.71,360.76,360.05,361.72,361.48,361.7,361.53,362.99,358.18,340.07,0.1575,25900,3,0.98
65,360.71,360.74,360.03,361.67,361.36,361.7,361.52,363.03,358.28,340.1,0.1575,25900,3,0.98
66,360.7,360.7,360.01,361.62,361.36,361.68,361.54,363.05,358.39,340.12,0.1575,25900,3,0.98
67,360.71,360.68,360.01,361.55,361.4,361.62,361.55,363.07,358.49,340.13,0.1575,25900,3,0.98
68,360.69,360.69,360.0,361.46,361.39,361.57,361.55,363.06,358.56,340.18,0.1575,25900,3,0.98
69,360.67,360.66,360.02,361.44,361.33,361.52,361.53,363.07,358.62,340.21,0.1575,25900,3,0.98
70,360.66,360.61,360.03,361.47,361.27,361.47,361.47,363.08,358.64,340.3,0.1575,25900,3,0.98
71,360.67,360.58,360.05,361.5,361.24,361.45,361.42,363.08,358.66,340.42,0.1575,25900,3,0.98
72,360.66,360.55,360.06,361.55,361.24,361.45,361.38,363.04,358.7,340.47,0.1575,25900,3,0.98
73,360.65,360.52,360.08,361.59,361.23,361.46,361.35,362.99,358.72,340.46,0.1575,25900,3,0.98
74,360.63,360.49,360.09,361.63,361.23,361.49,361.34,362.92,358.75,340.58,0.1575,25900,3,0.98
75,360.61,360.45,360.11,361.66,361.22,361.52,361.37,362.88,358.76,340.81,0.1575,25900,3,0.98
76,360.59,360.44,360.13,361.69,361.24,361.53,361.39,362.87,358.73,340.98,0.1575,25900,3,0.98
77,360.52,360.42,360.15,361.69,361.27,361.53,361.41,362.87,358.7,341.18,0.1575,25900,3,0.98
78,360.42,360.39,360.14,361.71,361.36,361.53,361.47,362.87,358.67,341.59,0.1575,25900,3,0.98
79,360.35,360.38,360.1,361.73,361.4,361.54,361.5,362.89,358.66,341.98,0.1575,25900,3,0.98
80,360.34,360.38,360.08,361.75,361.38,361.58,361.51,362.87,358.64,342.23,0.1575,25900,3,0.98
81,360.31,360.36,360.05,361.78,361.35,361.62,361.52,362.76,358.62,342.43,0.1575,25900,3,0.98
82,360.28,360.34,359.99,361.81,361.37,361.56,361.52,362.66,358.54,342.52,0.1575,25900,3,0.98
83,360.25,360.34,359.94,361.82,361.4,361.49,361.52,362.6,358.44,342.49,0.1575,25900,3,0.98
84,360.23,360.33,359.87,361.82,361.42,361.4,361.49,362.52,358.38,342.27,0.1575,25900,3,0.98
85,360.22,360.31,359.8,361.8,361.42,361.33,361.43,362.46,358.33,342.04,0.1575,25900,3,0.98
86,360.22,360.32,359.75,361.77,361.41,361.29,361.39,362.41,358.25,341.96,0.1575,25900,3,0.98
87,360.24,360.3,359.72,361.73,361.36,361.27,361.35,362.35,358.15,342.03,0.1575,25900,3,0.98
88,360.25,360.3,359.72,361.69,361.3,361.29,361.36,362.31,358.1,342.34,0.1575,25900,3,0.98
89,360.27,360.33,359.72,361.68,361.25,361.35,361.35,362.31,358.09,342.57,0.1575,25900,3,0.98
90,360.26,360.34,359.71,361.65,361.19,361.4,361.36,362.37,358.1,342.72,0.1575,25900,3,0.98
91,360.27,360.33,359.73,361.62,361.17,361.45,361.34,362.45,358.13,342.85,0.1575,25900,3,0.98
92,360.26,360.31,359.71,361.61,361.14,361.48,361.32,362.52,358.17,342.91,0.1575,25900,3,0.98
93,360.24,360.28,359.69,361.59,361.11,361.52,361.29,362.59,358.22,342.89,0.1575,25900,3,0.98
94,360.26,360.25,359.67,361.57,361.07,361.55,361.25,362.61,358.28,342.86,0.1575,25900,3,0.98
95,360.26,360.25,359.65,361.57,361.03,361.6,361.22,362.62,358.35,342.87,0.1575,25900,3,0.98
96,360.23,360.23,359.62,361.55,361.01,361.64,361.17,362.59,358.46,342.79,0.1575,25900,3,0.98
97,360.2,360.22,359.61,361.53,361.05,361.66,361.13,362.59,358.57,342.73,0.1575,25900,3,0.98
98,360.18,360.26,359.63,361.52,361.09,361.67,361.13,362.58,358.63,342.69,0.1575,25900,3,0.98
99,360.13,360.29,359.65,361.5,361.11,361.69,361.13,362.61,358.65,342.71,0.1575,25900,3,0.98
100,360.09,360.31,359.67,361.47,361.12,361.71,361.14,362.65,358.65,342.79,0.1575,25900,3,0.98
101,360.08,360.33,359.7,361.45,361.12,361.71,361.17,362.71,358.64,342.75,0.1575,25900,3,0.98
102,360.1,360.34,359.74,361.41,361.15,361.69,361.2,362.78,358.61,342.63,0.1575,25900,3,0.98
103,360.14,360.34,359.79,361.38,361.18,361.67,361.2,362.85,358.59,342.57,0.1575,25900,3,0.98
104,360.18,360.32,359.82,361.34,361.14,361.67,361.19,362.87,358.58,342.56,0.1575,25900,3,0.98
105,360.22,360.24,359.86,361.27,361.04,361.66,361.17,362.94,358.58,342.57,0.1575,25900,3,0.98
106,360.31,360.14,359.9,361.21,361.04,361.64,361.23,363.03,358.58,342.66,0.1575,25900,3,0.98
107,360.34,360.12,359.91,361.15,361.13,361.61,361.29,363.1,358.58,342.82,0.1575,25900,3,0.98
108,360.35,360.1,359.95,361.09,361.21,361.58,361.33,363.12,358.59,342.99,0.1575,25900,3,0.98
109,360.35,360.08,359.95,361.04,361.26,361.54,361.37,363.13,358.53,343.01,0.1575,25900,3,0.98
110,360.35,360.09,359.97,361.0,361.32,361.52,361.38,363.09,358.41,342.97,0.1575,25900,3,0.98
111,360.33,360.11,359.98,360.99,361.36,361.48,361.4,363.02,358.32,342.95,0.1575,25900,3,0.98
112,360.3,360.14,359.99,360.97,361.38,361.44,361.41,362.98,358.23,342.89,0.1575,25900,3,0.98
113,360.29,360.18,359.98,360.98,361.39,361.41,361.39,362.94,358.15,342.89,0.1575,25900,3,0.98
114,360.28,360.25,359.96,360.99,361.4,361.36,361.37,362.87,358.08,343.07,0.1575,25900,3,0.98
115,360.29,360.31,359.96,361.01,361.41,361.33,361.36,362.79,358.06,343.21,0.1575,25900,3,0.98
116,360.32,360.31,359.95,361.04,361.41,361.31,361.36,362.7,358.02,343.14,0.1575,25900,3,0.98
117,360.34,360.29,359.95,361.07,361.42,361.25,361.4,362.65,357.96,343.11,0.1575,25900,3,0.98
118,360.38,360.26,359.94,361.14,361.42,361.19,361.41,362.62,357.89,343.19,0.1575,25900,3,0.98
119,360.4,360.23,359.95,361.24,361.43,361.17,361.41,362.58,357.82,343.41,0.1575,25900,3,0.98
120,360.38,360.2,359.95,361.29,361.4,361.16,361.39,362.56,357.79,343.66,0.1575,25900,3,0.98
121,360.36,360.21,359.95,361.37,361.39,361.19,361.41,362.59,357.81,343.83,0.1575,25900,3,0.98
122,360.32,360.18,359.95,361.45,361.36,361.27,361.42,362.63,357.79,344.02,0.1575,25900,3,0.98
123,360.28,360.09,359.94,361.5,361.35,361.3,361.46,362.64,357.82,344.22,0.1575,25900,3,0.98
124,360.24,360.0,359.94,361.56,361.32,361.33,361.48,362.64,357.83,344.39,0.1575,25900,3,0.98
125,360.19,359.9,359.92,361.59,361.3,361.4,361.45,362.61,357.79,344.4,0.1575,25900,3,0.98
126,360.11,359.82,359.92,361.59,361.27,361.48,361.44,362.56,357.78,344.54,0.1575,25900,3,0.98
127,360.04,359.78,359.89,361.6,361.2,361.54,361.42,362.52,357.79,344.67,0.1575,25900,3,0.98
128,360.0,359.78,359.89,361.63,361.13,361.62,361.42,362.48,357.85,344.68,0.1575,25900,3,0.98
129,360.0,359.8,359.88,361.66,361.07,361.67,361.45,362.49,357.91,344.74,0.1575,25900,3,0.98
130,359.98,359.82,359.88,361.65,361.07,361.68,361.46,362.51,357.97,344.77,0.1575,25900,3,0.98
131,360.02,359.85,359.87,361.63,361.06,361.67,361.47,362.54,358.02,344.83,0.1575,25900,3,0.98
132,360.08,359.88,359.88,361.61,361.1,361.64,361.48,362.6,358.07,344.94,0.1575,25900,3,0.98
133,360.07,359.89,359.88,361.63,361.04,361.62,361.47,362.68,358.05,345.18,0.1575,25900,3,0.98
134,360.1,359.91,359.87,361.64,360.96,361.64,361.46,362.74,358.09,345.44,0.1575,25900,3,0.98
135,360.2,359.91,359.86,361.65,360.91,361.67,361.45,362.83,358.15,345.59,0.1575,25900,3,0.98
136,360.36,359.91,359.85,361.66,360.87,361.73,361.44,362.92,358.2,345.61,0.1575,25900,3,0.98
137,360.51,359.91,359.83,361.68,360.87,361.76,361.42,362.98,358.26,345.52,0.1575,25900,3,0.98
138,360.64,359.9,359.78,361.69,360.88,361.79,361.41,363.02,358.32,345.3,0.1575,25900,3,0.98
139,360.79,359.84,359.74,361.69,360.91,361.83,361.39,363.02,358.38,345.21,0.1575,25900,3,0.98
140,360.89,359.79,359.69,361.69,360.99,361.84,361.39,363.01,358.41,345.12,0.1575,25900,3,0.98
141,360.88,359.79,359.66,361.67,361.17,361.84,361.41,363.01,358.46,344.95,0.1575,25900,3,0.98
142,360.82,359.83,359.65,361.64,361.28,361.84,361.44,362.99,358.5,344.81,0.1575,25900,3,0.98
143,360.77,359.91,359.67,361.62,361.3,361.86,361.47,362.99,358.52,344.74,0.1575,25900,3,0.98
144,360.72,359.97,359.69,361.59,361.3,361.85,361.5,363.01,358.49,344.74,0.1575,25900,3,0.98
145,360.66,359.97,359.7,361.58,361.27,361.84,361.52,363.06,358.4,344.78,0.1575,25900,3,0.98
146,360.63,359.95,359.7,361.58,361.24,361.83,361.57,363.14,358.37,344.87,0.1575,25900,3,0.98
147,360.6,359.93,359.71,361.6,361.24,361.81,361.59,363.19,358.36,344.94,0.1575,25900,3,0.98
148,360.55,359.9,359.7,361.62,361.28,361.8,361.64,363.23,358.36,344.94,0.1575,25900,3,0.98
149,360.52,359.91,359.72,361.64,361.35,361.79,361.69,363.28,358.36,344.87,0.1575,25900,3,0.98
150,360.47,359.97,359.76,361.64,361.38,361.78,361.74,363.29,358.3,344.88,0.1575,25900,3,0.98
151,360.44,360.04,359.81,361.64,361.32,361.81,361.77,363.28,358.25,344.97,0.1575,25900,3,0.98
152,360.46,360.07,359.87,361.63,361.25,361.86,361.78,363.21,358.28,344.97,0.1575,25900,3,0.98
153,360.47,360.1,359.92,361.6,361.16,361.91,361.74,363.12,358.32,345.04,0.1575,25900,3,0.98
154,360.5,360.12,359.97,361.6,361.14,361.92,361.71,363.04,358.37,345.07,0.1575,25900,3,0.98
155,360.54,360.1,360.02,361.59,361.18,361.91,361.68,363.0,358.4,345.11,0.1575,25900,3,0.98
156,360.59,360.07,360.05,361.59,361.22,361.87,361.64,362.91,358.45,345.13,0.1575,25900,3,0.98
157,360.61,360.02,360.07,361.58,361.23,361.83,361.64,362.85,358.51,345.09,0.1575,25900,3,0.98
158,360.62,359.93,360.11,361.51,361.25,361.79,361.66,362.78,358.59,345.05,0.1575,25900,3,0.98
159,360.61,359.87,360.15,361.43,361.26,361.73,361.69,362.77,358.69,344.98,0.1575,25900,3,0.98
160,360.55,359.85,360.18,361.36,361.3,361.71,361.7,362.78,358.74,345.07,0.1575,25900,3,0.98
161,360.51,359.84,360.18,361.31,361.3,361.65,361.66,362.79,358.72,345.16,0.1575,25900,3,0.98
162,360.46,359.83,360.19,361.31,361.27,361.6,361.62,362.83,358.73,345.19,0.1575,25900,3,0.98
163,360.4,359.82,360.19,361.29,361.19,361.56,361.6,362.89,358.69,345.15,0.1575,25900,3,0.98
164,360.38,359.8,360.19,361.28,361.2,361.54,361.61,362.95,358.68,345.08,0.1575,25900,3,0.98
165,360.37,359.77,360.18,361.31,361.21,361.53,361.61,362.98,358.68,344.98,0.1575,25900,3,0.98
166,360.35,359.74,360.17,361.35,361.21,361.54,361.63,362.92,358.69,344.85,0.1575,25900,3,0.98
167,360.34,359.72,360.16,361.4,361.25,361.55,361.65,362.87,358.66,344.79,0.1575,25900,3,0.98
168,360.27,359.72,360.15,361.44,361.27,361.57,361.68,362.83,358.56,344.86,0.1575,25900,3,0.98
169,360.18,359.75,360.15,361.47,361.22,361.57,361.69,362.82,358.4,344.98,0.1575,25900,3,0.98
170,360.13,359.78,360.16,361.5,361.19,361.61,361.69,362.85,358.34,345.04,0.1575,25900,3,0.98
171,360.1,359.8,360.15,361.54,361.17,361.66,361.67,362.91,358.31,345.03,0.1575,25900,3,0.98
172,360.09,359.84,360.15,361.58,361.14,361.68,361.66,362.95,358.24,345.08,0.1575,25900,3,0.98
173,360.09,359.87,360.13,361.62,361.07,361.71,361.66,362.99,358.17,345.21,0.1575,25900,3,0.98
174,360.1,359.89,360.11,361.66,360.99,361.78,361.64,363.05,358.13,345.27,0.1575,25900,3,0.98
175,360.09,359.91,360.11,361.7,361.02,361.85,361.63,363.1,358.11,345.33,0.1575,25900,3,0.98
176,360.09,359.93,360.1,361.72,361.11,361.87,361.62,363.13,358.13,345.36,0.1575,25900,3,0.98
177,360.07,359.94,360.09,361.75,361.26,361.91,361.63,363.16,358.21,345.33,0.1575,25900,3,0.98
178,360.02,359.88,360.08,361.78,361.41,361.94,361.61,363.15,358.28,345.37,0.1575,25900,3,0.98
179,359.97,359.82,360.07,361.79,361.46,361.98,361.6,363.12,358.31,345.48,0.1575,25900,3,0.98
180,359.95,359.81,360.07,361.78,361.52,362.03,361.58,363.09,358.35,345.53,0.1575,25900,3,0.98
181,359.93,359.81,360.08,361.77,361.58,362.05,361.55,363.07,358.42,345.6,0.1575,25900,3,0.98
182,359.93,359.83,360.08,361.77,361.61,362.07,361.54,363.04,358.43,345.65,0.1575,25900,3,0.98
183,359.92,359.84,360.08,361.78,361.59,362.09,361.53,363.04,358.42,345.64,0.1575,25900,3,0.98
184,359.94,359.85,360.08,361.79,361.57,362.12,361.55,363.07,358.44,345.6,0.1575,25900,3,0.98
185,359.97,359.84,360.1,361.81,361.6,362.14,361.6,363.1,358.43,345.65,0.1575,25900,3,0.98
186,360.03,359.84,360.1,361.82,361.54,362.15,361.64,363.16,358.41,345.81,0.1575,25900,3,0.98
187,360.05,359.85,360.1,361.8,361.45,362.17,361.65,363.25,358.42,345.88,0.1575,25900,3,0.98
188,360.04,359.88,360.09,361.8,361.38,362.18,361.64,363.35,358.46,345.77,0.1575,25900,3,0.98
189,360.0,359.92,360.08,361.78,361.33,362.19,361.65,363.42,358.49,345.71,0.1575,25900,3,0.98
190,359.98,359.96,360.08,361.76,361.28,362.18,361.64,363.45,358.51,345.62,0.1575,25900,3,0.98
191,359.97,360.0,360.08,361.74,361.22,362.19,361.66,363.47,358.51,345.52,0.1575,25900,3,0.98
192,359.99,360.03,360.09,361.72,361.2,362.19,361.69,363.48,358.54,345.51,0.1575,25900,3,0.98
193,360.0,360.04,360.1,361.69,361.28,362.18,361.74,363.48,358.56,345.63,0.1575,25900,3,0.98
194,360.0,360.06,360.12,361.67,361.38,362.17,361.79,363.48,358.61,345.65,0.1575,25900,3,0.98
195,360.08,360.06,360.16,361.66,361.5,362.14,361.9,363.47,358.69,345.61,0.1575,25900,3,0.98
196,360.15,360.03,360.19,361.67,361.55,362.11,361.98,363.5,358.76,345.62,0.1575,25900,3,0.98
197,360.16,360.0,360.21,361.68,361.58,362.1,362.0,363.54,358.82,345.64,0.1575,25900,3,0.98
198,360.17,359.97,360.23,361.68,361.59,362.05,362.02,363.61,358.88,345.69,0.1575,25900,3,0.98
199,360.19,359.94,360.25,361.65,361.59,362.01,362.04,363.65,358.93,345.74,0.1575,25900,3,0.98
200,360.2,359.9,360.29,361.67,361.59,362.02,362.06,363.69,359.0,345.82,0.1575,25900,3,0.98
201,360.21,359.86,360.31,361.68,361.56,362.01,362.08,363.69,359.04,345.86,0.1575,25900,3,0.98
202,360.21,359.81,360.31,361.7,361.56,361.99,362.1,363.68,359.04,345.87,0.1575,25900,3,0.98
203,360.22,359.78,360.34,361.72,361.61,361.96,362.1,363.66,359.0,345.88,0.1575,25900,3,0.98
204,360.34,359.74,360.35,361.72,361.66,361.92,362.08,363.65,358.94,345.9,0.1575,25900,3,0.98
205,360.41,359.77,360.36,361.75,361.7,361.88,362.05,363.62,358.93,346.03,0.1575,25900,3,0.98
206,360.38,359.81,360.37,361.77,361.74,361.84,362.01,363.59,358.93,346.06,0.1575,25900,3,0.98
207,360.32,359.84,360.35,361.79,361.75,361.8,361.96,363.58,358.96,346.04,0.1575,25900,3,0.98
208,360.27,359.83,360.34,361.81,361.75,361.81,361.92,363.61,359.01,345.98,0.1575,25900,3,0.98
209,360.23,359.82,360.33,361.8,361.69,361.86,361.88,363.6,359.05,345.97,0.1575,25900,3,0.98
210,360.2,359.81,360.32,361.79,361.56,361.93,361.86,363.57,359.05,346.06,0.1575,25900,3,0.98
211,360.19,359.82,360.33,361.8,361.45,361.99,361.87,363.55,359.04,346.15,0.1575,25900,3,0.98
212,360.19,359.84,360.33,361.82,361.42,362.06,361.88,363.59,359.04,346.29,0.1575,25900,3,0.98
213,360.18,359.91,360.34,361.82,361.44,362.12,361.87,363.67,359.1,346.43,0.1575,25900,3,0.98
214,360.15,360.0,360.35,361.84,361.43,362.18,361.87,363.72,359.11,346.59,0.1575,25900,3,0.98
